4333
0 0.40024 -3.75895
1 0.324578 -3.71726
2 0.249916 -3.67471
3 0.100846 -3.59255
4 -0.0202463 -3.52487
5 -0.0507574 -3.50788
6 -0.128995 -3.46433
7 -0.391124 -4.83474
8 -0.540199 -4.75168
9 -0.633139 -4.69994
10 -0.691062 -4.66769
11 -0.761588 -4.62842
12 1.91871 0.517449
13 1.98274 0.478444
14 2.1148 0.497154
15 2.15917 0.56222
16 -0.142915 -4.74063
17 -0.292942 -4.65738
18 -0.442351 -4.57472
19 -0.533181 -4.52411
20 -0.593272 -4.49063
21 -0.71181 -4.42457
22 -0.454869 -8.83589
23 0.571243 -2.74186
24 0.412288 -2.65655
25 0.366217 -2.63187
26 -1.49633 -8.30997
27 -1.66969 -8.22012
28 -2.17837 -10.3093
29 -2.15326 -10.3378
30 -2.12437 -10.3719
31 -2.18735 -10.3172
32 -2.13486 -10.38
33 -0.709393 -5.76786
34 -0.774461 -5.73157
35 -0.858654 -5.68351
36 -1.00901 -5.60059
37 -1.16022 -5.51699
38 -0.0178346 -4.51415
39 -0.167836 -4.43027
40 -0.316858 -4.3478
41 -0.397745 -4.30298
42 -0.467404 -4.26396
43 -0.585889 -4.19788
44 -2.54905 -9.79656
45 -2.47439 -9.83532
46 -2.38313 -9.89571
47 -2.33038 -9.9277
48 -2.27051 -9.96491
49 -2.20858 -10.0026
50 -2.1503 -10.0649
51 1.80611 -3.50441
52 -2.10501 -7.23803
53 -1.839 -10.1535
54 -1.8006 -9.94134
55 -0.850313 -4.64137
56 -0.805892 -4.4774
57 -0.320534 -7.94541
58 0.495983 -6.43844
59 -0.878841 -4.6636
60 -0.795902 -4.67155
61 -0.238425 -7.41511
62 -0.386707 -7.38688
63 -0.427659 -9.45163
64 -0.377262 -9.28801
65 -0.934527 -4.76716
66 1.79316 -0.53391
67 1.86682 -0.400832
68 1.8345 -3.38729
69 1.80914 -3.43412
70 -0.527538 -9.67895
71 -0.537845 -9.73491
72 -0.741782 -9.85446
73 -0.851466 -4.61108
74 -2.03627 -8.94302
75 -0.375648 -9.13432
76 0.164502 -6.4867
77 0.191152 -6.44059
78 -0.606341 -5.93515
79 0.297346 -6.27003
80 -0.326235 -7.92608
81 -1.55186 -6.45794
82 -1.54622 -6.57287
83 1.2617 -4.81883
84 -0.954889 -4.99764
85 0.172753 -6.37164
86 1.96416 -3.9875
87 1.89334 -4.00757
88 1.87102 -4.05648
89 1.01627 -5.74178
90 0.976471 -5.80773
91 -1.45056 -5.76048
92 -0.316372 -5.05475
93 1.75315 -2.42264
94 -2.14829 -9.06915
95 -0.564998 -5.50501
96 0.154675 -4.20453
97 1.71267 -1.55674
98 1.69038 -1.48929
99 1.65685 -1.49408
100 -2.16072 -9.16264
101 -2.13236 -8.94537
102 -0.489146 -9.5839
103 0.442117 -6.46348
104 0.426932 -2.20664
105 0.537558 -2.03639
106 0.395612 -2.24549
107 0.34658 -2.31853
108 0.306808 -2.36597
109 1.69467 -3.13929
110 -1.43856 -6.57817
111 1.03398 -0.973439
112 -0.118369 -4.69618
113 -2.02661 -8.89961
114 -0.91106 -9.3702
115 0.021128 -2.88588
116 0.349266 -2.3902
117 -0.545044 -9.51147
118 0.773613 -4.20057
119 -0.880999 -4.62481
120 0.182056 -4.15501
121 0.420972 -2.20342
122 -0.442848 -3.9354
123 1.7311 -1.6409
124 1.75401 -2.53009
125 1.75847 -2.57366
126 0.251149 -4.02796
127 2.03552 -3.67094
128 1.92339 -3.38009
129 1.67298 -1.45609
130 1.93746 1.04533
131 -0.905496 -4.6235
132 -1.73657 -9.60072
133 -2.11077 -8.9348
134 -2.10935 -8.96658
135 1.86466 -3.34726
136 1.88683 -3.34561
137 0.805045 -3.74707
138 1.61492 -1.23932
139 -2.3919 -10.4335
140 1.97239 -3.45576
141 1.60618 -4.19708
142 1.62938 -4.15507
143 1.70045 -1.17933
144 -0.435031 -7.30378
145 -0.0878531 -7.32765
146 -0.365579 -7.99427
147 -0.385168 -8.02224
148 1.75682 -3.22926
149 1.76406 -2.37264
150 1.75923 -2.31172
151 1.63328 -4.29228
152 1.59827 -4.34218
153 1.92817 -0.289989
154 0.81879 -6.04664
155 0.876856 -5.96061
156 1.24326 -1.15326
157 1.21837 -1.08278
158 1.23301 -1.03419
159 1.24785 -0.984658
160 1.26192 -0.937409
161 1.27705 -0.8878
162 1.29816 -0.81666
163 1.33978 -0.679756
164 1.35385 -0.633959
165 1.37359 -0.589767
166 1.39991 -0.54746
167 1.41827 -0.502989
168 1.43292 -0.455307
169 1.44757 -0.407904
170 1.45709 -0.375022
171 1.472 -0.326781
172 1.48549 -0.282938
173 1.53121 -0.133531
174 1.55107 -0.0685421
175 1.57566 0.0165602
176 1.59597 0.103966
177 1.62409 0.22579
178 1.69291 0.3643
179 -2.02223 -9.78798
180 -1.93775 -9.89293
181 -2.05513 -10.1158
182 -2.01396 -10.1589
183 -1.98894 -10.186
184 -1.94962 -10.2262
185 -1.90472 -9.65103
186 -1.82592 -9.54444
187 -1.80239 -9.50462
188 -1.75623 -9.42204
189 -1.72746 -9.37394
190 -1.71061 -9.34622
191 -1.68278 -9.30041
192 -1.67246 -9.2836
193 -1.63423 -9.22147
194 -1.58895 -9.14935
195 -0.880216 -9.5419
196 -0.846421 -9.47862
197 -0.834235 -9.43839
198 -0.820458 -9.40458
199 -0.787593 -9.3262
200 -0.756701 -9.24508
201 -0.724932 -9.16238
202 -1.23407 -7.83428
203 -1.40448 -7.73951
204 -1.55468 -7.65591
205 -1.70513 -7.57223
206 -1.85748 -7.48752
207 -2.0057 -7.40542
208 -2.12866 -7.33707
209 -2.59229 -10.0361
210 -2.63312 -10.0136
211 -1.30668 -7.56234
212 -1.45697 -7.47879
213 -1.60719 -7.39528
214 -1.75958 -7.31056
215 -1.90781 -7.22816
216 -2.15064 -7.09544
217 2.98167 1.37976
218 2.90925 1.42074
219 0.813597 -2.76284
220 0.837819 -2.71928
221 0.861513 -2.67551
222 0.885947 -2.63222
223 0.945187 -2.37139
224 1.00859 -2.12259
225 -0.70238 -9.60899
226 -0.700508 -9.65701
227 -0.692834 -9.75145
228 -0.688132 -9.79968
229 -0.309533 -6.15967
230 -0.343752 -6.14058
231 2.13098 0.258812
232 2.0571 0.299583
233 2.00365 0.329344
234 1.88114 0.415403
235 1.83143 0.434392
236 -1.01728 -7.44137
237 -1.11111 -7.38934
238 -1.18763 -7.34657
239 -1.33803 -7.26305
240 -1.48815 -7.1795
241 -1.6403 -7.0954
242 -1.78836 -7.01219
243 -1.93882 -6.92861
244 -2.08497 -6.84873
245 1.61174 -2.68532
246 1.989 0.713582
247 2.00677 0.720465
248 2.06292 0.749145
249 2.10734 0.770403
250 2.15193 0.792185
251 2.20016 0.815712
252 2.31884 0.873517
253 2.41843 0.922177
254 2.51828 0.970836
255 2.59233 1.007
256 2.66589 1.04177
257 1.33055 -1.7233
258 1.35469 -1.68025
259 1.37886 -1.63669
260 1.4033 -1.59228
261 1.44845 -1.50788
262 -0.218016 -4.87669
263 -2.21422 -10.2861
264 0.465541 -6.42126
265 0.489938 -6.37726
266 0.512124 -6.33404
267 0.537246 -6.28978
268 0.561469 -6.24609
269 0.585681 -6.20241
270 0.60966 -6.15915
271 0.634 -6.11525
272 0.658169 -6.07165
273 0.682678 -6.02745
274 0.706927 -5.98371
275 0.733196 -5.93632
276 0.759598 -5.8887
277 0.784175 -5.84379
278 0.808578 -5.79918
279 0.832605 -5.75527
280 0.8566 -5.71174
281 0.881817 -5.66747
282 0.90833 -5.61917
283 0.934478 -5.57284
284 0.958605 -5.52897
285 0.983833 -5.48367
286 1.00809 -5.43946
287 1.03289 -5.39493
288 1.05709 -5.35083
289 1.08364 -5.30313
290 1.10966 -5.25621
291 1.13385 -5.2125
292 1.15816 -5.16852
293 1.18226 -5.12484
294 1.20773 -5.07854
295 1.23102 -5.03494
296 -0.443573 -4.92958
297 -0.592849 -4.8469
298 -0.685932 -4.79504
299 -0.744426 -4.76261
300 -0.830136 -4.71475
301 1.91606 -0.311862
302 1.83851 -0.268976
303 1.765 -0.227926
304 1.69984 -0.191693
305 1.65087 -0.164046
306 1.47936 -0.119548
307 1.42842 -0.10585
308 1.38548 -0.25606
309 1.44843 -0.0383269
310 1.5316 0.194514
311 1.5702 0.259252
312 1.64098 0.381257
313 -1.2019 -8.01198
314 -1.19103 -7.96494
315 -1.18152 -7.91695
316 -1.1717 -7.86898
317 -1.16209 -7.82178
318 -1.14981 -7.77078
319 -1.13845 -7.7162
320 -1.13675 -7.65645
321 -1.14002 -7.59878
322 -1.13275 -7.5459
323 -1.12427 -7.49499
324 -1.11687 -7.44242
325 -1.10371 -7.33611
326 -1.09588 -7.28428
327 -1.06846 -7.06503
328 -1.06103 -7.01251
329 -1.05308 -6.96082
330 -1.04225 -6.91088
331 -1.03123 -6.86007
332 -1.01941 -6.81097
333 -1.00737 -6.76073
334 -0.994597 -6.70755
335 -0.947865 -6.55737
336 -0.926969 -6.45524
337 -0.912409 -6.406
338 -0.893782 -6.35925
339 -0.87196 -6.31394
340 -0.849742 -6.26957
341 -0.827952 -6.22497
342 -0.808759 -6.17908
343 -0.78836 -6.13189
344 -0.774879 -6.0831
345 -0.763016 -6.03343
346 -0.75531 -5.97532
347 -0.748398 -5.91662
348 -2.4652 -10.2831
349 -2.41516 -10.1941
350 -2.34482 -10.0837
351 -2.30785 -10.0242
352 -2.29552 -10.0041
353 -2.28659 -9.98983
354 -2.24121 -9.91939
355 -2.21768 -9.88302
356 -2.21403 -9.87701
357 -2.19229 -9.84392
358 -2.16959 -9.80881
359 -2.02429 -9.57904
360 -1.99962 -9.5403
361 -1.97614 -9.50372
362 -1.95257 -9.46694
363 -1.89982 -9.38581
364 -1.87391 -9.34498
365 -1.8467 -9.30274
366 -1.82356 -9.26685
367 -1.81224 -9.2492
368 -1.78833 -9.21204
369 -1.74708 -9.14744
370 -1.70532 -9.08281
371 -1.65014 -8.99681
372 -1.59582 -8.91206
373 -1.53921 -8.82366
374 -1.46281 -8.70429
375 -1.43529 -8.66131
376 -1.40897 -8.62045
377 -1.38226 -8.57884
378 -1.35661 -8.5389
379 -1.33434 -8.50407
380 -1.311 -8.46762
381 -1.28569 -8.42818
382 -1.26141 -8.38779
383 -1.25226 -8.33861
384 -1.24301 -8.2852
385 -1.23407 -8.23187
386 -1.22202 -8.17491
387 -2.41067 -10.3206
388 -2.4173 -10.2518
389 -0.771917 -5.79067
390 -0.775027 -5.67456
391 -0.775434 -5.61611
392 -0.776645 -5.53206
393 -0.777703 -5.50039
394 -0.779411 -5.44266
395 -0.777486 -5.38648
396 -0.775894 -5.32993
397 -0.774218 -5.27372
398 -0.772885 -5.21854
399 -0.764058 -5.10325
400 -0.752994 -5.04687
401 -0.741671 -4.99566
402 -0.730612 -4.94505
403 -0.717427 -4.89313
404 -0.70393 -4.84325
405 -0.659641 -4.74714
406 -0.608821 -4.65584
407 -0.583742 -4.61267
408 -0.558546 -4.56757
409 -0.506049 -4.48212
410 -0.475771 -4.43522
411 -0.446905 -4.39095
412 -0.422433 -4.34745
413 -0.373829 -4.25976
414 -0.349146 -4.21542
415 -0.325061 -4.17134
416 -0.300627 -4.12734
417 -0.277018 -4.0838
418 -0.254128 -4.03889
419 -0.227832 -3.99197
420 -0.200621 -3.94495
421 -0.175044 -3.90221
422 -0.150837 -3.85848
423 -0.126747 -3.81442
424 -0.10308 -3.7701
425 -0.0795602 -3.72681
426 -0.0549356 -3.68255
427 -0.0374561 -3.63458
428 -0.025826 -3.58467
429 -0.0156821 -3.46549
430 0.0194884 -3.37055
431 0.043489 -3.32873
432 0.0686373 -3.28314
433 0.092622 -3.23936
434 0.116813 -3.19557
435 0.141089 -3.15137
436 0.165496 -3.10727
437 0.313377 -2.83664
438 0.464012 -2.56272
439 0.487653 -2.51909
440 0.509686 -2.47998
441 0.533983 -2.43615
442 0.557772 -2.39311
443 0.581371 -2.34944
444 0.60572 -2.30552
445 0.656086 -2.21462
446 0.705287 -2.12541
447 0.729743 -2.08114
448 0.753759 -2.03804
449 0.777823 -1.99476
450 0.801977 -1.95132
451 0.826422 -1.90676
452 0.850206 -1.86349
453 0.87418 -1.82065
454 0.900634 -1.7729
455 0.926174 -1.72632
456 0.950191 -1.68285
457 0.974588 -1.63898
458 0.998049 -1.5964
459 1.02231 -1.55246
460 1.04628 -1.50906
461 1.0706 -1.46539
462 1.09473 -1.42183
463 1.14505 -1.3308
464 1.17043 -1.28492
465 1.19579 -1.23916
466 1.21882 -1.19742
467 1.2672 -1.10967
468 1.29146 -1.0665
469 1.31567 -1.02227
470 1.33882 -0.980944
471 1.36374 -0.935657
472 1.39278 -0.883017
473 1.41933 -0.835056
474 1.46767 -0.751482
475 1.49873 -0.713846
476 1.49971 -0.660069
477 1.50384 -0.605126
478 1.51188 -0.55493
479 1.52032 -0.502808
480 1.53026 -0.450923
481 1.54223 -0.397781
482 1.55408 -0.346049
483 1.56418 -0.302486
484 1.56741 -0.291805
485 1.58256 -0.244374
486 1.61752 -0.204035
487 1.68651 -0.119687
488 1.70222 -0.0779668
489 1.72036 -0.0318902
490 1.7366 0.0116733
491 1.7549 0.0585179
492 1.76743 0.0913999
493 1.79333 0.158225
494 1.81403 0.240451
495 1.84317 0.321993
496 1.85004 0.336863
497 1.89304 0.445422
498 1.94841 0.61088
499 1.98817 0.8048
500 2.04725 0.891696
501 2.08916 0.921178
502 2.1335 0.952238
503 2.20751 0.986754
504 2.25337 1.00847
505 2.35359 1.05594
506 2.4537 1.10418
507 2.531 1.13292
508 2.59418 1.15828
509 2.64532 1.18642
510 2.69018 1.21705
511 2.7376 1.25479
512 2.77555 1.2932
513 2.87367 1.38392
514 0.380682 -4.91108
515 0.465456 -4.95826
516 0.558074 -5.00982
517 0.636242 -5.05333
518 0.721175 -5.1006
519 0.839469 -5.16644
520 0.964761 -5.23618
521 1.18133 -5.35766
522 1.20807 -5.37191
523 -2.02771 -10.101
524 -2.0745 -10.0556
525 -1.40188 -8.13867
526 -1.57234 -8.04407
527 -1.72218 -7.96075
528 -1.83991 -7.89916
529 -1.87323 -7.87461
530 -1.91738 -7.85208
531 -1.9935 -7.80938
532 -2.1096 -7.74583
533 -2.17521 -7.7088
534 1.74159 -0.625009
535 1.6652 -0.582297
536 1.59158 -0.541317
537 1.52754 -0.505593
538 1.32227 -0.395128
539 -2.18981 -10.2331
540 -2.19175 -10.2171
541 -2.59851 -10.1503
542 1.51225 -2.86477
543 1.34541 -2.7731
544 1.18625 -2.68545
545 1.04001 -2.60478
546 0.435886 -2.26866
547 1.21719 -3.3973
548 -0.293281 -3.72189
549 -2.18083 -9.64017
550 -2.24862 -9.59985
551 -2.31286 -9.56348
552 -2.41175 -9.54124
553 -2.47907 -9.52639
554 -2.53668 -9.51681
555 -2.52649 -9.49894
556 -2.584 -9.46407
557 -1.3929 -9.60675
558 -1.36391 -9.532
559 -1.33343 -9.45307
560 -1.30135 -9.37052
561 -1.2766 -9.3066
562 -1.25014 -9.23826
563 -1.21753 -9.15411
564 -1.18623 -9.07334
565 -1.27909 -7.91572
566 -1.44948 -7.82122
567 -1.59989 -7.73773
568 -1.74973 -7.65381
569 -1.90234 -7.56877
570 -2.05066 -7.4871
571 -2.14267 -7.4354
572 -0.0202357 -5.63698
573 0.0646654 -5.68385
574 0.156416 -5.73429
575 0.235753 -5.77829
576 0.320601 -5.82513
577 0.439351 -5.89069
578 0.564663 -5.95987
579 -1.77387 -8.38404
580 -1.86836 -8.43016
581 2.93194 1.29211
582 2.83648 1.34516
583 2.77955 1.37617
584 2.71492 1.41199
585 2.66743 1.43872
586 2.59957 1.47524
587 0.190243 -2.83189
588 1.05112 -3.30463
589 0.78033 -3.15428
590 0.746323 -3.1353
591 0.669165 -3.09262
592 0.595661 -3.0518
593 -1.40053 -9.18426
594 -1.33841 -9.21419
595 -1.29532 -9.22017
596 -1.19867 -9.27022
597 -1.16992 -9.2704
598 -1.13016 -9.28632
599 -1.08701 -9.30361
600 -1.04524 -9.32034
601 -0.866719 -9.38732
602 -0.77627 -9.41883
603 -0.731262 -9.43684
604 -0.685546 -9.45527
605 -0.598333 -9.48997
606 -0.5535 -9.50806
607 0.704647 -2.85527
608 -2.039 -9.46582
609 -2.06638 -9.44931
610 -2.13381 -9.40866
611 -2.18896 -9.37541
612 -2.25248 -10.0668
613 -2.18875 -10.1186
614 -2.10722 -10.1807
615 -2.07081 -10.2113
616 -1.08857 -7.57053
617 -1.00415 -7.61799
618 -0.915598 -7.66734
619 -0.833103 -7.71331
620 -0.748239 -7.7606
621 -0.630643 -7.82612
622 -0.559667 -7.86512
623 -0.504373 -7.89551
624 2.55709 1.33197
625 2.74649 1.1867
626 -0.189213 -5.94276
627 -0.10437 -5.98994
628 -0.0131276 -6.03999
629 0.0662467 -6.08481
630 0.151026 -6.13196
631 0.269538 -6.19786
632 0.395633 -6.26743
633 -0.864688 -5.33863
634 -2.20304 -9.67837
635 -2.27182 -9.63677
636 -2.32261 -9.60607
637 1.42377 -0.314424
638 -1.44675 -9.16362
639 -1.48821 -9.14518
640 -1.53181 -9.12578
641 -1.57535 -9.10642
642 -1.59584 -9.0973
643 0.105082 -5.40897
644 0.190444 -5.4563
645 0.283135 -5.5077
646 0.361325 -5.55105
647 0.446125 -5.59808
648 0.564695 -5.66384
649 0.68995 -5.73329
650 -1.95368 -8.81932
651 -1.96361 -8.90982
652 -1.9965 -9.32649
653 -1.98649 -9.27617
654 -1.98764 -9.21771
655 -1.98903 -9.16312
656 -1.99053 -9.13616
657 -1.99616 -9.05221
658 -1.96609 -8.95464
659 -1.95493 -8.91638
660 -1.92616 -8.82283
661 -1.91024 -8.77138
662 -1.89517 -8.72195
663 -1.87983 -8.67267
664 -1.82732 -8.52681
665 -1.80288 -8.47116
666 -1.7877 -8.43523
667 -1.76342 -8.39048
668 -1.74 -8.34797
669 -1.71646 -8.3051
670 -1.68776 -8.25383
671 -1.64496 -8.1756
672 -1.62168 -8.13322
673 -1.59688 -8.08847
674 -1.54584 -7.99569
675 -1.51924 -7.94801
676 -1.49475 -7.90319
677 -1.47212 -7.86227
678 -1.427 -7.78059
679 -1.38188 -7.69854
680 -1.35818 -7.65557
681 -1.33244 -7.60892
682 -1.28304 -7.51921
683 -1.25894 -7.47585
684 -1.23528 -7.43299
685 -1.21149 -7.38992
686 -1.16383 -7.30342
687 -1.13949 -7.26022
688 -1.11533 -7.2169
689 -1.09176 -7.17404
690 -1.06506 -7.12618
691 -1.04039 -7.08096
692 -1.01611 -7.03736
693 -0.99364 -6.99464
694 -0.969734 -6.95156
695 -0.945459 -6.90842
696 -0.921749 -6.86489
697 -0.898283 -6.82171
698 -0.873002 -6.77528
699 -0.846875 -6.72823
700 -0.822679 -6.68452
701 -0.798631 -6.6406
702 -0.774403 -6.59739
703 -0.750275 -6.55368
704 -0.726132 -6.50978
705 -0.701899 -6.46584
706 -0.677295 -6.42143
707 -0.653739 -6.37855
708 -0.62968 -6.33545
709 -0.605336 -6.29155
710 -0.581219 -6.24792
711 -0.556822 -6.20414
712 -0.532779 -6.16063
713 -0.506911 -6.11332
714 -0.479632 -6.0642
715 -0.455335 -6.0193
716 -1.87617 -8.62169
717 0.858826 -4.24771
718 0.950714 -4.29861
719 1.02936 -4.34305
720 1.11387 -4.39042
721 1.23192 -4.45596
722 1.3579 -4.52602
723 -2.27526 -9.3848
724 -2.24675 -9.38906
725 -2.19202 -9.39725
726 -1.8937 -9.61831
727 -2.08826 -9.48606
728 -2.15541 -9.44495
729 -2.19459 -9.42098
730 -2.07959 -7.19173
731 -2.03403 -7.10089
732 -2.01106 -7.05826
733 -1.98716 -7.01606
734 -1.96354 -6.97261
735 -1.91426 -6.88483
736 -1.84383 -6.75587
737 -1.81844 -6.70902
738 -1.79276 -6.66194
739 -1.76934 -6.61904
740 -1.74633 -6.57704
741 -1.72259 -6.53398
742 -1.67239 -6.44847
743 -1.64971 -6.4048
744 -1.62457 -6.35739
745 -1.59897 -6.31014
746 -1.5746 -6.26705
747 -1.55033 -6.22321
748 -1.5256 -6.17934
749 -1.50169 -6.13568
750 -1.47735 -6.09189
751 -1.45295 -6.04838
752 -1.42925 -6.00428
753 -1.40479 -5.96105
754 -1.3798 -5.91712
755 -1.35669 -5.8748
756 -1.33193 -5.8292
757 -1.30808 -5.78588
758 -1.28407 -5.74192
759 -1.25824 -5.69478
760 -1.23238 -5.6489
761 -1.20835 -5.60387
762 -1.98506 -8.54652
763 -1.96091 -8.48717
764 -1.94885 -8.45939
765 -1.93646 -8.43077
766 -1.91337 -8.37747
767 -1.87318 -8.28433
768 -1.86166 -8.2576
769 -1.83964 -8.2065
770 -1.81706 -8.15469
771 -1.8027 -8.12315
772 -1.79469 -8.10506
773 -1.77088 -8.05133
774 -1.98367 -9.9471
775 -1.47439 -8.26963
776 -1.3858 -8.31892
777 -1.20265 -8.42017
778 -1.134 -8.45905
779 -1.01548 -8.52501
780 -0.890011 -8.59457
781 -0.773044 -8.65996
782 -0.650238 -8.72838
783 -0.524914 -8.79701
784 -0.399443 -8.86724
785 -0.312357 -8.91574
786 1.59967 -0.0869727
787 -0.412221 -9.37579
788 -1.13607 -5.47317
789 -1.11196 -5.42941
790 -1.08808 -5.38551
791 -1.06428 -5.34122
792 -1.03921 -5.29617
793 -0.943206 -5.12448
794 -0.919512 -5.08026
795 -0.89237 -5.03238
796 -0.865973 -4.98428
797 -0.842068 -4.93976
798 -0.817676 -4.8955
799 -0.792475 -4.85171
800 -0.767797 -4.80738
801 -0.717099 -4.71526
802 -0.666982 -4.62385
803 -0.642611 -4.57962
804 -0.617854 -4.53453
805 -0.56916 -4.44651
806 -0.542172 -4.39848
807 -0.516346 -4.35131
808 -0.492483 -4.30862
809 -0.4439 -4.22025
810 -0.419953 -4.17627
811 -0.39554 -4.13194
812 -0.371481 -4.08821
813 -0.347692 -4.04422
814 -0.323305 -4.00064
815 -0.29592 -3.95404
816 -0.269814 -3.90635
817 -0.245814 -3.86311
818 -0.22212 -3.81904
819 -0.197553 -3.77474
820 -0.173278 -3.73083
821 -0.149108 -3.68683
822 -0.124933 -3.6437
823 -0.100409 -3.5995
824 -0.0770269 -3.55569
825 -0.0262332 -3.45974
826 -2.04796 -7.83721
827 -2.13419 -7.79088
828 -2.18685 -7.7604
829 -1.37625 -8.69831
830 -1.28233 -8.75974
831 2.17419 0.632871
832 2.08407 0.818434
833 0.385548 -3.34376
834 0.0251845 -3.14476
835 0.876332 -3.61805
836 0.798788 -3.57477
837 0.718425 -3.53014
838 0.572523 -3.44872
839 0.495697 -3.40651
840 2.40463 1.20492
841 2.42776 1.15906
842 2.4857 1.038
843 2.55181 0.901861
844 2.5734 0.878278
845 2.6734 0.82381
846 -1.97411 -8.40176
847 -2.03118 -8.39615
848 0.253052 -4.20004
849 0.00695398 -4.4693
850 -1.17527 -8.13869
851 -1.09306 -8.18461
852 -1.00861 -8.2318
853 -0.932448 -8.27417
854 -0.890085 -8.29784
855 -0.848039 -8.32116
856 -0.764211 -8.36795
857 -0.400686 -8.56941
858 -1.3491 -8.04246
859 -1.89295 -7.89759
860 -1.91712 -7.89829
861 -2.00439 -7.89773
862 -2.05463 -7.89787
863 -2.14152 -7.89809
864 -1.90638 -8.55538
865 -1.92226 -8.51912
866 -1.94055 -8.47838
867 -1.95756 -8.43953
868 -1.98304 -8.3814
869 -2.00179 -8.33865
870 -0.362257 -6.25512
871 -0.683314 -6.07734
872 -0.833791 -5.99408
873 -0.983506 -5.90924
874 -1.13379 -5.82558
875 -1.96807 -9.6623
876 -2.13354 -9.5613
877 -2.20067 -9.52031
878 -2.29068 -9.46574
879 -2.38765 -9.40772
880 -2.44393 -9.37405
881 -2.45815 -9.36555
882 1.29853 -1.76249
883 -0.164832 -5.89899
884 -0.0801579 -5.94613
885 0.0106244 -5.99679
886 0.0905223 -6.04118
887 0.175159 -6.0883
888 0.293517 -6.15421
889 0.418677 -6.22391
890 1.98892 1.11108
891 -0.0683638 -5.72397
892 0.0162993 -5.77111
893 0.107669 -5.82182
894 0.187069 -5.8662
895 0.271812 -5.91339
896 0.390482 -5.97939
897 0.515372 -6.04902
898 -1.84393 -8.48603
899 -1.86159 -8.44564
900 -1.87845 -8.40708
901 -1.88694 -8.38765
902 -1.92323 -8.30538
903 -1.93782 -8.27228
904 -1.95419 -8.22963
905 -1.96397 -8.18483
906 -1.97372 -8.13978
907 -1.98413 -8.09312
908 -1.34487 -8.82605
909 -2.32384 -10.2555
910 -2.32483 -10.3073
911 -2.3252 -10.3229
912 -2.32554 -10.3583
913 -2.32166 -10.3967
914 -2.30299 -10.4787
915 -1.60663 -9.7154
916 -1.59534 -9.76806
917 -0.860907 -9.68153
918 -0.846458 -9.81384
919 -1.23141 -9.05535
920 -1.14562 -9.0896
921 -1.13093 -9.09548
922 -1.10559 -9.10561
923 -1.06595 -9.12149
924 -1.02268 -9.13875
925 -0.980841 -9.15547
926 -0.936383 -9.17325
927 -0.891603 -9.19115
928 -0.803005 -9.22657
929 -1.35084 -9.01009
930 -1.27184 -9.03959
931 -1.36179 -9.27264
932 -0.895035 -9.45927
933 -0.982798 -9.42426
934 -1.02754 -9.40619
935 -1.07191 -9.3886
936 -1.1138 -9.37178
937 -1.15648 -9.35471
938 -1.19635 -9.3387
939 -1.22196 -9.32856
940 -1.2356 -9.32305
941 -1.32271 -9.28793
942 -1.94462 -8.92462
943 -1.90522 -8.95066
944 -1.87011 -8.976
945 -1.82802 -9.00328
946 -1.78739 -9.02961
947 -1.74772 -9.05533
948 -1.66172 -9.10851
949 -1.61756 -9.1335
950 -1.57276 -9.1585
951 -1.54485 -9.17376
952 -1.50307 -9.19615
953 -1.46228 -9.217
954 -1.41606 -9.24587
955 -1.69508 -8.22553
956 -1.71154 -8.1823
957 -1.73173 -8.13809
958 -1.75115 -8.09587
959 -1.79034 -8.00916
960 -1.80579 -7.97475
961 -1.82055 -7.94203
962 -1.85987 -7.85508
963 1.65887 -0.962723
964 1.63749 -0.923125
965 1.60807 -0.867617
966 1.5237 -0.837283
967 1.47735 -0.812087
968 -1.64935 -9.59086
969 -1.65299 -9.55713
970 -1.63325 -9.51278
971 -1.59414 -9.42933
972 -1.55976 -9.35584
973 -1.52635 -9.27318
974 -1.47288 -9.09432
975 -1.44372 -8.99576
976 -1.40325 -8.87531
977 0.980215 -3.82505
978 0.992279 -3.84948
979 0.96273 -3.8575
980 -0.727772 -6.91686
981 -0.643034 -6.96402
982 -0.471963 -7.05923
983 -0.38684 -7.10641
984 -0.341488 -7.13165
985 -0.268704 -7.17217
986 -0.174716 -7.22458
987 -0.0605629 -7.28366
988 -0.415891 -5.23497
989 -0.566405 -5.1504
990 -0.714994 -5.06834
991 -0.939419 -4.9436
992 -0.531187 -6.56096
993 -0.851223 -6.38284
994 -1.00248 -6.29876
995 -1.15245 -6.2154
996 -1.30264 -6.13192
997 -1.57262 -5.98186
998 1.65863 -2.19472
999 1.68504 -2.14817
1000 1.70986 -2.10496
1001 -2.23476 -10.1993
1002 -0.627866 -6.73598
1003 -1.09872 -6.47387
1004 -1.24897 -6.39038
1005 -1.39928 -6.30687
1006 0.426499 -3.71157
1007 0.350938 -3.66981
1008 0.275615 -3.62804
1009 0.127137 -3.54471
1010 -0.103058 -3.41755
1011 2.26896 0.67464
1012 2.23348 0.747309
1013 2.16795 0.882034
1014 2.09195 0.998971
1015 2.05678 1.03688
1016 2.02376 1.07271
1017 -0.336168 -6.20788
1018 -0.25114 -6.25536
1019 -0.160987 -6.3055
1020 -0.0804117 -6.35032
1021 0.00143776 -6.39584
1022 0.122689 -6.46336
1023 0.367063 -6.59922
1024 2.54674 1.42127
1025 0.792991 -3.39536
1026 0.787417 -3.33014
1027 0.78546 -3.27164
1028 0.782975 -3.21286
1029 0.777844 -3.09557
1030 0.775306 -3.03651
1031 0.772503 -2.9778
1032 0.768589 -2.91797
1033 0.794398 -2.87112
1034 0.820313 -2.82386
1035 0.851782 -2.78434
1036 0.882404 -2.74476
1037 0.91292 -2.70399
1038 1.0014 -2.52715
1039 1.01838 -2.47954
1040 1.05483 -2.37617
1041 1.07162 -2.32861
1042 1.08845 -2.28094
1043 1.1053 -2.23317
1044 1.12204 -2.18572
1045 1.13877 -2.13831
1046 1.20823 -1.9445
1047 1.25865 -1.85415
1048 1.28277 -1.81059
1049 1.31319 -1.71368
1050 1.35754 -1.567
1051 1.37215 -1.5171
1052 1.38796 -1.46606
1053 1.41381 -1.36248
1054 1.42578 -1.31198
1055 1.44127 -1.26395
1056 1.45777 -1.21464
1057 1.47157 -1.17394
1058 1.46647 -1.12181
1059 1.4584 -1.10134
1060 1.45125 -1.04207
1061 1.46063 -0.989727
1062 1.46848 -0.933911
1063 1.46652 -0.860168
1064 1.48779 -0.763811
1065 1.52204 -0.672286
1066 1.54333 -0.627292
1067 1.56704 -0.585718
1068 1.6167 -0.495868
1069 1.64172 -0.450769
1070 1.66774 -0.403925
1071 1.69186 -0.360501
1072 1.71565 -0.316449
1073 1.74099 -0.271698
1074 1.79187 -0.179405
1075 1.81413 -0.139333
1076 1.83788 -0.0966768
1077 1.86051 -0.0555568
1078 1.88368 -0.0135991
1079 1.91012 0.0341531
1080 1.93651 0.0817657
1081 1.96068 0.125259
1082 1.98485 0.168893
1083 2.00802 0.210641
1084 2.07323 0.329184
1085 2.0809 0.34279
1086 0.804077 -3.69247
1087 0.801432 -3.63362
1088 0.796249 -3.51585
1089 0.794557 -3.45783
1090 -1.81976 -10.0307
1091 -1.80197 -10.0623
1092 -1.78263 -10.0953
1093 -1.84535 -9.98641
1094 -1.8132 -10.0264
1095 -1.79065 -10.0541
1096 -1.76708 -10.0844
1097 -0.0957493 -3.94663
1098 -0.319423 -3.8217
1099 -1.7713 -8.2695
1100 -1.7767 -8.24129
1101 -1.78643 -8.19661
1102 -1.7965 -8.15145
1103 -1.80614 -8.10728
1104 -1.8163 -8.06023
1105 -1.82594 -8.01628
1106 -1.63956 -8.35495
1107 -1.75049 -8.2832
1108 -1.79962 -8.25151
1109 -1.39903 -8.51112
1110 -1.43912 -8.48515
1111 -1.47875 -8.45909
1112 -1.5431 -9.80954
1113 -1.52164 -9.92339
1114 -2.03141 -10.0521
1115 1.32914 -1.37237
1116 2.1551 0.302934
1117 -1.53521 -8.38001
1118 -1.45482 -8.42518
1119 1.35688 -4.69762
1120 1.27532 -4.76369
1121 1.25448 -5.03895
1122 1.27136 -5.06789
1123 1.44282 -4.64646
1124 1.57398 -4.41144
1125 -1.57009 -9.66368
1126 -1.42522 -9.64776
1127 -1.39274 -9.64422
1128 -1.34151 -9.63858
1129 -1.31604 -9.63578
1130 -1.11512 -9.61373
1131 -1.03439 -9.60446
1132 -0.937605 -9.59414
1133 -0.903989 -9.59051
1134 -0.825963 -9.5823
1135 -0.814148 -9.56792
1136 -0.191852 -4.82925
1137 -0.342197 -4.7463
1138 -0.491563 -4.66372
1139 -0.720209 -4.53603
1140 -1.92023 -9.14703
1141 -1.8701 -9.06844
1142 -1.77257 -8.91687
1143 -1.71831 -8.83198
1144 -1.66379 -8.74634
1145 -1.53152 -8.5401
1146 -0.799276 -7.04637
1147 -1.11994 -6.86779
1148 -1.27046 -6.78471
1149 -1.42063 -6.7007
1150 -1.57094 -6.6176
1151 -2.66125 -10.1729
1152 -2.64221 -10.127
1153 -2.61828 -10.0834
1154 0.646539 -3.6591
1155 1.53333 -2.41374
1156 1.38277 -2.33087
1157 1.23654 -2.24923
1158 1.16345 -2.20859
1159 0.936207 -2.08249
1160 0.862523 -2.04167
1161 0.675982 -1.93835
1162 -1.80864 -8.30358
1163 -1.84949 -8.27385
1164 -2.35882 -10.4146
1165 0.255443 -4.91212
1166 -0.603591 -6.69221
1167 -0.518589 -6.73952
1168 -0.470937 -6.76605
1169 -0.34794 -6.83451
1170 -0.262833 -6.88169
1171 -0.144364 -6.94723
1172 -0.0181572 -7.01811
1173 0.811217 -2.42041
1174 0.763464 -2.39471
1175 0.651558 -2.33223
1176 0.460299 -2.22531
1177 1.36904 -2.73025
1178 1.20961 -2.64124
1179 1.06423 -2.56101
1180 1.36665 -3.12776
1181 1.45211 -3.17532
1182 1.62282 -3.27032
1183 1.70705 -3.31651
1184 1.8261 -3.38301
1185 1.94221 -3.4469
1186 -1.17878 -8.54022
1187 -1.0606 -8.60702
1188 -0.935886 -8.6772
1189 -0.818633 -8.74234
1190 -0.21635 -4.51831
1191 -0.365669 -4.43606
1192 -0.648508 -4.27769
1193 0.599945 -4.5145
1194 0.685359 -4.56132
1195 0.7762 -4.61182
1196 0.855955 -4.65615
1197 0.940041 -4.70287
1198 1.059 -4.76977
1199 1.18426 -4.83968
1200 -1.2023 -8.58358
1201 -1.17334 -8.59984
1202 -1.08437 -8.64977
1203 -0.959474 -8.71986
1204 -0.842168 -8.78514
1205 -0.719257 -8.85355
1206 -0.594224 -8.92313
1207 -0.468885 -8.99283
1208 1.50509 -2.10995
1209 1.35874 -2.02804
1210 1.30568 -1.99895
1211 1.25666 -1.97172
1212 1.13104 -1.90213
1213 1.05826 -1.86129
1214 0.82676 -1.73216
1215 -1.18779 -7.75002
1216 -1.50824 -7.57192
1217 -1.65846 -7.48822
1218 -1.8113 -7.40266
1219 -1.95906 -7.32115
1220 1.60209 -1.93117
1221 1.45746 -1.85087
1222 1.40483 -1.82197
1223 1.2294 -1.72428
1224 1.15665 -1.68407
1225 0.9271 -1.55718
1226 -1.11929 -8.23247
1227 -1.06868 -8.1401
1228 -1.04633 -8.09931
1229 -1.0237 -8.058
1230 -1.00133 -8.01718
1231 -0.978884 -7.97621
1232 1.44497 -2.59262
1233 2.74306 1.33715
1234 1.05663 -3.89007
1235 1.14865 -3.94174
1236 1.22676 -3.98503
1237 1.31191 -4.0323
1238 1.43032 -4.09861
1239 1.5555 -4.16871
1240 -2.23281 -10.0373
1241 -2.34419 -9.9543
1242 -2.392 -9.92609
1243 -2.09038 -10.158
1244 -2.16967 -10.0919
1245 -1.58682 -6.83763
1246 -1.53635 -6.74949
1247 -1.41648 -6.52897
1248 -1.39225 -6.48646
1249 -1.66798 -7.02098
1250 1.85042 0.792624
1251 1.85141 0.860671
1252 1.93667 0.889986
1253 1.91156 0.838792
1254 -1.06483 -7.52751
1255 -1.38575 -7.34943
1256 -1.53554 -7.26539
1257 -1.83566 -7.09794
1258 -2.11317 -6.94619
1259 -0.82736 -9.84888
1260 -0.830258 -9.81229
1261 -2.0285 -9.18131
1262 -2.05248 -9.17809
1263 -2.06579 -9.17629
1264 -2.01227 -9.20244
1265 -2.24221 -9.15427
1266 0.975122 -4.25418
1267 1.05387 -4.29868
1268 1.13838 -4.3461
1269 0.798048 -4.15694
1270 0.882933 -4.20386
1271 1.38214 -4.48192
1272 1.25594 -4.41255
1273 1.72601 -1.66749
1274 -0.870781 -7.17601
1275 -0.786001 -7.22279
1276 -0.695468 -7.27276
1277 -0.614909 -7.31801
1278 -0.52968 -7.36529
1279 -0.485513 -7.39008
1280 -0.411607 -7.43153
1281 -0.377515 -7.45037
1282 -0.286262 -7.50082
1283 1.69477 -0.711417
1284 1.61749 -0.668586
1285 1.33026 -0.508924
1286 1.70807 -0.796924
1287 1.67014 -0.75609
1288 1.19312 -3.44122
1289 1.27855 -3.48876
1290 1.37081 -3.5401
1291 1.44935 -3.5838
1292 1.53411 -3.63098
1293 1.65277 -3.69701
1294 1.77823 -3.76683
1295 1.89701 -3.83294
1296 -0.661572 -5.67989
1297 -0.637323 -5.63597
1298 -0.613126 -5.59216
1299 -0.588681 -5.5479
1300 -0.540929 -5.46142
1301 -0.516701 -5.41754
1302 -0.492378 -5.37349
1303 -0.468218 -5.32974
1304 -0.442166 -5.28256
1305 -0.391213 -5.19029
1306 -0.36707 -5.14656
1307 -0.342387 -5.10187
1308 -0.167338 -4.78486
1309 0.030431 -4.42682
1310 0.0551297 -4.38198
1311 0.0802515 -4.33894
1312 0.104892 -4.29485
1313 0.128697 -4.25141
1314 0.276857 -3.98157
1315 0.301239 -3.93757
1316 0.32561 -3.89361
1317 0.349896 -3.84979
1318 0.374261 -3.80582
1319 0.450885 -3.66757
1320 0.47514 -3.62381
1321 0.490298 -3.59658
1322 0.346659 -3.49767
1323 0.398674 -3.29411
1324 0.411706 -3.24313
1325 0.54839 -2.96612
1326 1.09147 -3.62538
1327 1.1768 -3.67258
1328 1.26968 -3.72267
1329 1.34836 -3.76575
1330 1.43259 -3.81409
1331 1.67691 -3.94924
1332 1.79631 -4.01529
1333 2.57482 0.645856
1334 2.47714 0.701288
1335 -1.31435 -7.2202
1336 -1.29018 -7.17608
1337 -1.69142 -9.59414
1338 -1.63873 -9.40881
1339 -1.60392 -9.33594
1340 -1.57008 -9.2537
1341 -1.48595 -8.97259
1342 -1.46709 -8.92344
1343 -1.44167 -8.85738
1344 0.329492 -5.00318
1345 0.414504 -5.0509
1346 0.507126 -5.10243
1347 0.585274 -5.1459
1348 0.670048 -5.19307
1349 0.788417 -5.25892
1350 0.913856 -5.32896
1351 1.15737 -5.46419
1352 -0.879597 -9.42044
1353 -0.791179 -9.45563
1354 -0.745695 -9.47295
1355 -0.701179 -9.49109
1356 -0.613137 -9.52626
1357 -0.56832 -9.54438
1358 -0.52704 -9.56655
1359 -1.96574 -7.98299
1360 -1.93181 -7.94208
1361 -1.84469 -7.82927
1362 -1.81811 -7.78045
1363 -1.79521 -7.73605
1364 -1.77234 -7.69461
1365 -1.72714 -7.61271
1366 -1.63264 -7.44192
1367 -1.58337 -7.35208
1368 -1.55956 -7.30893
1369 -1.51221 -7.2231
1370 -1.39319 -7.00737
1371 -1.36706 -6.96002
1372 -1.34148 -6.91378
1373 -1.31764 -6.87052
1374 -1.29404 -6.82771
1375 -1.24634 -6.74122
1376 -1.22258 -6.69803
1377 -1.19869 -6.65486
1378 -1.17306 -6.60833
1379 -1.12289 -6.51765
1380 -1.07453 -6.43006
1381 -1.05056 -6.38665
1382 -1.02636 -6.34283
1383 -0.977884 -6.25503
1384 -0.953926 -6.21164
1385 -0.929851 -6.16805
1386 -0.905967 -6.12479
1387 -0.880978 -6.08022
1388 -0.857596 -6.03718
1389 -0.807141 -5.94634
1390 -0.782093 -5.89823
1391 0.507132 -3.56643
1392 0.523892 -3.53626
1393 0.548205 -3.49249
1394 0.597126 -3.40519
1395 0.621455 -3.36128
1396 0.647629 -3.31374
1397 0.673655 -3.26689
1398 0.722153 -3.17914
1399 0.770652 -3.09138
1400 0.794716 -3.04754
1401 0.818505 -3.00357
1402 0.842886 -2.95946
1403 0.869145 -2.91223
1404 0.920007 -2.82135
1405 0.944283 -2.77771
1406 1.01505 -2.6496
1407 1.0883 -2.51752
1408 1.11411 -2.4706
1409 1.14007 -2.42362
1410 1.16424 -2.37999
1411 1.18841 -2.33642
1412 1.21243 -2.29293
1413 1.26049 -2.20589
1414 1.28462 -2.16238
1415 1.30879 -2.11875
1416 1.3328 -2.07532
1417 1.38489 -1.98156
1418 1.40896 -1.93793
1419 1.43307 -1.8943
1420 1.46772 -1.83209
1421 1.48129 -1.8075
1422 1.50532 -1.76382
1423 1.52949 -1.72018
1424 1.55355 -1.67648
1425 1.57762 -1.63299
1426 -1.56042 -9.71011
1427 -1.41992 -9.69494
1428 -1.37556 -9.69003
1429 -1.30958 -9.68263
1430 -1.1907 -9.66974
1431 -1.10996 -9.66098
1432 -1.02995 -9.65112
1433 -0.922236 -9.64005
1434 0.888364 -2.16896
1435 0.777628 -2.10765
1436 1.65964 -2.59923
1437 1.49259 -2.50586
1438 1.33341 -2.41694
1439 1.11538 -2.29579
1440 1.47036 -2.72996
1441 0.788232 -2.34994
1442 1.39296 -2.68689
1443 1.23406 -2.59816
1444 -2.13659 -8.97839
1445 -2.21739 -8.96745
1446 -2.25978 -8.9617
1447 -2.31402 -8.95436
1448 -2.26807 -9.33929
1449 -2.25447 -9.24649
1450 -2.24823 -9.19953
1451 -2.2356 -9.10523
1452 -2.22947 -9.05834
1453 -2.22339 -9.01262
1454 -2.21138 -8.92129
1455 -2.2048 -8.87453
1456 -2.19381 -8.78866
1457 -2.18722 -8.73675
1458 -2.18076 -8.68621
1459 -2.17436 -8.6356
1460 -2.1675 -8.58579
1461 -2.15721 -8.53543
1462 -2.14702 -8.48564
1463 -2.13655 -8.43511
1464 -2.1259 -8.38528
1465 -2.1104 -8.30918
1466 -2.10138 -8.25909
1467 -2.09175 -8.20967
1468 -2.08204 -8.16084
1469 -2.07266 -8.10943
1470 -2.06302 -8.06121
1471 -2.05664 -8.02389
1472 -2.05605 -7.98249
1473 -2.05515 -7.94115
1474 -2.05404 -7.85299
1475 -2.45175 -10.1093
1476 -2.43224 -10.0466
1477 -2.41422 -9.99368
1478 -2.40467 -9.96458
1479 -2.40009 -9.95095
1480 -2.46978 -10.1647
1481 2.14362 -0.0320298
1482 2.08657 -0.00166803
1483 2.01019 0.0408552
1484 1.87136 0.118069
1485 1.74448 0.182227
1486 1.66942 0.211304
1487 1.57652 0.245191
1488 -2.15423 -9.11486
1489 -2.27783 -9.10084
1490 -2.33548 -9.09362
1491 -2.19959 -9.47349
1492 -2.18595 -9.35258
1493 -2.18263 -9.32822
1494 -2.17939 -9.30252
1495 -2.17558 -9.2755
1496 -2.17304 -9.25686
1497 -2.16687 -9.21037
1498 -2.14235 -9.02312
1499 -2.11857 -8.84524
1500 -2.11252 -8.79904
1501 -2.10557 -8.74688
1502 -2.09933 -8.69612
1503 -2.09392 -8.64572
1504 -2.08713 -8.59572
1505 -2.08068 -8.545
1506 -2.07463 -8.49395
1507 -2.06842 -8.44361
1508 -2.06224 -8.39299
1509 -2.05615 -8.34029
1510 -2.05055 -8.2963
1511 -2.04506 -8.24827
1512 -2.03881 -8.19968
1513 -2.03281 -8.15123
1514 -2.02669 -8.10145
1515 -2.02061 -8.05361
1516 -2.01825 -8.0073
1517 -2.0149 -7.9823
1518 -2.00967 -7.94132
1519 -1.99894 -7.85245
1520 -1.9841 -7.75207
1521 0.0302723 -5.54525
1522 0.115179 -5.59252
1523 0.20777 -5.64407
1524 0.285631 -5.68742
1525 0.370586 -5.73472
1526 0.489123 -5.80073
1527 0.614167 -5.87034
1528 -0.237341 -6.02996
1529 -0.152604 -6.07713
1530 -0.0611023 -6.1277
1531 0.0180182 -6.17212
1532 0.102893 -6.21916
1533 0.220711 -6.28483
1534 0.346299 -6.35488
1535 0.455079 -4.7768
1536 0.539827 -4.82401
1537 0.632482 -4.87564
1538 0.710581 -4.91915
1539 0.795377 -4.96639
1540 0.913618 -5.03227
1541 1.03896 -5.10211
1542 1.28064 -5.23555
1543 -1.18081 -9.8213
1544 -2.0205 -8.85701
1545 -1.05257 -7.70416
1546 -0.963261 -7.75385
1547 -0.88074 -7.79976
1548 -0.796129 -7.84662
1549 -0.677866 -7.91228
1550 0.821794 -4.11366
1551 0.906399 -4.15937
1552 0.999392 -4.21054
1553 1.07772 -4.25571
1554 1.16238 -4.30269
1555 1.28071 -4.36855
1556 1.40662 -4.43775
1557 0.923133 -3.93073
1558 1.00787 -3.97788
1559 1.10087 -4.0284
1560 1.17866 -4.07296
1561 1.26335 -4.12011
1562 1.38082 -4.18759
1563 1.50622 -4.25761
1564 -0.434597 -6.38609
1565 -0.349702 -6.43339
1566 -0.259205 -6.48383
1567 -0.178783 -6.52865
1568 -0.0939934 -6.57572
1569 0.024296 -6.64096
1570 0.149879 -6.71191
1571 0.25108 -6.76904
1572 0.304925 -6.74811
1573 1.3906 -3.08419
1574 1.22475 -2.99183
1575 1.06645 -2.90292
1576 0.765945 -2.73659
1577 0.656255 -2.67641
1578 -0.932644 -7.48868
1579 -0.844183 -7.53772
1580 -0.76162 -7.5838
1581 -0.676904 -7.63092
1582 -0.559593 -7.69604
1583 -0.432931 -7.76681
1584 -1.94755 -9.01631
1585 -1.91553 -8.96693
1586 -1.85148 -8.86703
1587 -1.79655 -8.77986
1588 -1.74366 -8.69439
1589 -1.63915 -8.5315
1590 -1.61087 -8.4895
1591 1.81876 -0.487658
1592 1.74136 -0.444765
1593 1.60242 -0.367761
1594 1.3448 -0.294946
1595 -1.76692 -8.49241
1596 -1.73261 -8.23242
1597 -2.16813 -8.32308
1598 -2.23488 -8.33711
1599 -2.25433 -8.34076
1600 0.178057 -5.27605
1601 0.26345 -5.32412
1602 0.35584 -5.37614
1603 0.434924 -5.41849
1604 0.518259 -5.46761
1605 0.638585 -5.53237
1606 0.762904 -5.60152
1607 2.62829 1.3287
1608 2.67626 1.37485
1609 -1.30337 -8.19339
1610 -1.17711 -8.26328
1611 -1.06156 -8.32778
1612 -0.943132 -8.39383
1613 -0.817279 -8.46397
1614 -0.700587 -8.52878
1615 -0.577781 -8.59713
1616 -0.453161 -8.66635
1617 -1.99178 -8.58964
1618 -0.858299 -9.85174
1619 -0.862123 -9.81534
1620 -0.0467379 -4.21098
1621 -0.195702 -4.12872
1622 -0.456102 -3.98359
1623 -1.15053 -8.09426
1624 -1.12812 -8.05403
1625 -0.143941 -4.38608
1626 -0.292561 -4.30387
1627 -0.533752 -4.17002
1628 -0.834928 -9.30728
1629 -0.878894 -9.28968
1630 -0.923648 -9.27177
1631 -0.967984 -9.25401
1632 -1.01239 -9.23624
1633 -1.05415 -9.21952
1634 -1.0973 -9.20225
1635 -1.13712 -9.18631
1636 -1.16242 -9.17617
1637 -1.17653 -9.17052
1638 -1.26241 -9.13579
1639 -1.3024 -9.12059
1640 -1.37354 -9.09326
1641 -0.654955 -9.37846
1642 -1.55051 -9.76028
1643 -1.51363 -9.9613
1644 0.346844 -3.14582
1645 1.11855 -3.57623
1646 0.951513 -3.48191
1647 0.570518 -3.27106
1648 0.497374 -3.23204
1649 1.02006 -3.75299
1650 0.852379 -3.66144
1651 0.69426 -3.57418
1652 0.472792 -3.45071
1653 0.247446 -3.32518
1654 0.0126077 -3.19492
1655 -1.10568 -8.01234
1656 -0.938795 -8.10529
1657 -0.820336 -8.17128
1658 -0.694182 -8.2424
1659 -0.317546 -4.70153
1660 -0.46669 -4.61875
1661 -0.716036 -4.47983
1662 1.63532 -1.0261
1663 1.54737 -0.977894
1664 1.2111 -0.75757
1665 -1.17721 -8.81802
1666 -1.05198 -8.88769
1667 -0.934775 -8.95297
1668 -0.811969 -9.02124
1669 -0.687344 -9.09055
1670 -0.56165 -9.16066
1671 -0.702174 -6.8703
1672 -1.02272 -6.69192
1673 -1.32325 -6.52482
1674 -1.47352 -6.44127
1675 -1.78286 -6.27077
1676 -0.619399 -5.24658
1677 -2.49196 -9.91794
1678 -2.57902 -9.89993
1679 -2.64131 -9.87989
1680 -0.0927452 -5.76795
1681 -0.0078864 -5.81521
1682 0.0837844 -5.8652
1683 0.162841 -5.91029
1684 0.247468 -5.95742
1685 0.365963 -6.02342
1686 0.491181 -6.09317
1687 -1.40314 -9.86694
1688 -1.30162 -9.84257
1689 -1.28879 -9.8401
1690 -1.17336 -9.81979
1691 -1.01161 -9.79864
1692 -0.912049 -9.78543
1693 -0.940117 -7.99771
1694 -0.918047 -7.95715
1695 -2.241 -10.2446
1696 -1.58034 -9.62686
1697 -1.54136 -9.5549
1698 -1.47115 -9.39759
1699 -1.43782 -9.3153
1700 -1.38781 -9.14045
1701 -1.35952 -9.04215
1702 -1.32491 -8.91176
1703 -1.31149 -8.86437
1704 -1.29659 -8.81173
1705 -0.897373 -7.22286
1706 -1.21646 -7.04286
1707 -1.5182 -6.87544
1708 -1.6679 -6.79219
1709 -1.96633 -6.62692
1710 -0.993322 -7.39809
1711 -1.6154 -7.05048
1712 -1.76503 -6.96837
1713 -2.06263 -6.80128
1714 -1.69766 -9.78126
1715 -1.64325 -9.77467
1716 -1.41432 -9.74401
1717 -1.18492 -9.72059
1718 -1.10437 -9.71156
1719 -1.02226 -9.70286
1720 -0.922722 -9.69035
1721 -0.62418 -9.63975
1722 1.49601 -2.68312
1723 -0.336247 -8.43687
1724 -0.376415 -8.52563
1725 -1.06527 -5.16953
1726 -1.10935 -5.14457
1727 -1.16271 -7.70326
1728 -1.48264 -7.52529
1729 -1.78536 -7.35708
1730 -1.93341 -7.27459
1731 0.29879 -3.76368
1732 0.223763 -3.72236
1733 0.0739737 -3.63864
1734 -0.155153 -3.51166
1735 2.28616 0.940677
1736 2.38596 0.989477
1737 2.55959 1.07402
1738 2.60195 1.09559
1739 1.58539 -2.73268
1740 1.67253 -2.78027
1741 1.7291 -2.81137
1742 1.74744 -2.72322
1743 2.10655 0.215388
1744 1.96768 0.292252
1745 -1.51998 -8.35215
1746 -1.60651 -8.30391
1747 -1.24606 -9.39265
1748 -1.27886 -9.47465
1749 -1.30981 -9.55335
1750 -1.31927 -9.59935
1751 -1.33521 -9.57957
1752 -1.3332 -9.60075
1753 -1.34511 -9.60194
1754 -1.32198 -9.54854
1755 -1.25908 -9.38743
1756 1.51531 -1.59906
1757 1.27718 -1.46626
1758 -1.59216 -9.53156
1759 -0.191704 -4.47447
1760 -0.341028 -4.39151
1761 -0.623989 -4.23364
1762 -2.26563 -9.00715
1763 0.429365 -2.43535
1764 0.36408 -2.39985
1765 1.87532 -3.59069
1766 1.90446 -3.5844
1767 1.88466 -3.57274
1768 -2.30495 -9.88008
1769 1.36325 -0.00538209
1770 -0.994444 -7.91421
1771 -0.955645 -7.93573
1772 1.98896 -0.180145
1773 1.91134 -0.137517
1774 1.77246 -0.060723
1775 1.52598 0.0317027
1776 0.412753 -2.31146
1777 1.48707 -2.90994
1778 1.32089 -2.81753
1779 1.16099 -2.73002
1780 0.779748 -2.5164
1781 0.715828 -2.48081
1782 1.505 -1.29942
1783 1.40166 -1.24132
1784 1.67419 -2.38006
1785 1.58082 -2.32772
1786 1.43111 -2.24361
1787 1.21687 -2.12433
1788 1.0572 -2.03532
1789 0.984663 -1.99491
1790 0.947837 -1.97439
1791 -1.13971 -5.23997
1792 -1.12292 -5.19469
1793 -1.09594 -5.09556
1794 -1.07834 -5.05024
1795 -0.40946 -8.29281
1796 -0.533757 -8.22499
1797 -1.73802 -10.0208
1798 -1.72041 -10.0517
1799 0.230808 -5.18059
1800 0.316375 -5.22829
1801 0.409019 -5.27993
1802 0.487077 -5.32344
1803 0.57184 -5.37069
1804 0.690299 -5.43672
1805 0.815617 -5.50658
1806 1.05891 -5.6422
1807 -0.908379 -9.81949
1808 -0.904354 -9.85541
1809 -1.04133 -7.48484
1810 -1.3619 -7.30626
1811 -1.66375 -7.1377
1812 -1.8125 -7.05551
1813 -2.0987 -6.89765
1814 1.31466 -3.22165
1815 1.39859 -3.2692
1816 1.49219 -3.32057
1817 1.57064 -3.36442
1818 1.65547 -3.41155
1819 1.89483 -3.55468
1820 -2.0221 -9.13211
1821 -2.01539 -9.08528
1822 -1.27578 -8.14506
1823 0.0564148 -5.49762
1824 0.141491 -5.54511
1825 0.233933 -5.59673
1826 0.311922 -5.64028
1827 0.396649 -5.68757
1828 0.515065 -5.7537
1829 0.640066 -5.82349
1830 0.895922 -5.93709
1831 -1.09946 -5.2626
1832 -1.04838 -5.12214
1833 -1.03136 -5.07639
1834 0.814379 -2.30268
1835 0.885519 -2.3385
1836 -1.0167 -7.9552
1837 -0.467129 -4.97172
1838 -0.617082 -4.89071
1839 -0.862335 -4.75488
1840 -0.446037 -6.60843
1841 -0.355355 -6.65842
1842 -0.275473 -6.70352
1843 -0.190535 -6.75067
1844 -0.0722776 -6.81654
1845 0.142834 -6.93592
1846 1.20571 -3.21823
1847 1.12358 -3.17309
1848 0.965592 -3.08506
1849 0.741976 -2.96079
1850 0.668789 -2.92006
1851 0.518799 -2.83584
1852 0.926132 -4.3431
1853 1.00524 -4.38672
1854 1.09014 -4.43349
1855 0.749602 -4.24505
1856 0.834382 -4.29154
1857 1.20804 -4.49937
1858 1.33364 -4.56947
1859 1.43837 -2.9976
1860 -0.551046 -8.54865
1861 -0.673873 -8.4797
1862 0.387869 -2.35633
1863 0.532153 -2.14608
1864 -1.42658 -8.18342
1865 -1.74617 -8.00538
1866 -1.91743 -7.98291
1867 -2.14697 -7.98221
1868 -2.23162 -7.98203
1869 -0.893671 -8.02352
1870 -0.775106 -8.08931
1871 -0.648984 -8.1592
1872 -0.362268 -8.31791
1873 -1.06071 -7.93071
1874 -1.61168 -9.23561
1875 1.2055 -1.76756
1876 1.13284 -1.7271
1877 0.91054 -1.60331
1878 1.57814 -1.9746
1879 1.38082 -1.86539
1880 -1.25918 -8.51926
1881 -1.22344 -8.5165
1882 -1.30177 -7.95687
1883 -1.62237 -7.77864
1884 -1.92448 -7.61019
1885 -2.07319 -7.52794
1886 -2.14909 -7.4837
1887 -0.739862 -8.3236
1888 -1.87809 -8.72754
1889 -2.00623 -8.70806
1890 1.66975 -0.866158
1891 0.739114 -2.90171
1892 0.280057 -5.09205
1893 0.365466 -5.13958
1894 0.458105 -5.19113
1895 0.536241 -5.2346
1896 0.621005 -5.28177
1897 0.739527 -5.34772
1898 0.86475 -5.4174
1899 1.10829 -5.55293
1900 2.72227 1.14216
1901 -1.26675 -7.13384
1902 -0.888789 -5.38229
1903 1.169 -3.48506
1904 1.25428 -3.53252
1905 1.34659 -3.58391
1906 1.42506 -3.62759
1907 1.50991 -3.67483
1908 1.62846 -3.74081
1909 1.75353 -3.81044
1910 1.87243 -3.8767
1911 -1.89152 -8.84106
1912 -1.83726 -8.75421
1913 -1.78445 -8.66786
1914 -1.67941 -8.50541
1915 -1.65173 -8.46288
1916 0.0807328 -5.45333
1917 0.165824 -5.50089
1918 0.258325 -5.5526
1919 0.336425 -5.59625
1920 0.420998 -5.64353
1921 0.540139 -5.70873
1922 0.665394 -5.77796
1923 -1.70456 -9.26405
1924 -1.74587 -9.23899
1925 -1.83043 -9.18391
1926 1.03673 -2.42774
1927 1.06677 -2.38278
1928 1.09115 -2.33949
1929 1.13955 -2.25237
1930 1.18758 -2.16541
1931 1.20407 -2.11819
1932 1.37908 -1.7502
1933 1.47037 -1.53423
1934 1.44201 -1.49629
1935 1.47745 -1.34082
1936 1.54007 -1.25997
1937 1.57926 -1.18695
1938 1.59872 -1.13103
1939 1.61776 -1.07664
1940 1.65161 -0.980232
1941 1.69024 -0.719641
1942 1.48199 -1.5183
1943 -1.65661 -9.72758
1944 -1.69626 -7.91254
1945 -1.66987 -7.8643
1946 -1.6449 -7.81976
1947 -1.57726 -7.69682
1948 -1.53209 -7.61521
1949 -1.43314 -7.43565
1950 -1.40948 -7.39226
1951 0.819599 -3.34769
1952 0.844034 -3.30385
1953 0.868595 -3.26057
1954 0.91704 -3.17268
1955 0.94121 -3.12891
1956 0.989814 -3.04136
1957 1.01594 -2.99403
1958 1.04175 -2.94732
1959 1.08967 -2.86082
1960 1.11389 -2.81691
1961 1.13737 -2.77433
1962 1.25997 -2.55234
1963 1.28657 -2.50506
1964 1.30992 -2.46154
1965 1.35814 -2.37358
1966 1.40712 -2.28723
1967 1.45518 -2.20025
1968 1.47929 -2.15676
1969 1.53112 -2.06286
1970 1.55488 -2.01939
1971 1.62644 -1.88746
1972 1.65038 -1.84453
1973 -1.19118 -6.99751
1974 -1.16758 -6.95354
1975 -1.14405 -6.91121
1976 -1.09603 -6.82499
1977 -1.0724 -6.78133
1978 -1.04907 -6.73821
1979 -0.99676 -6.64487
1980 -0.973214 -6.60085
1981 -0.924235 -6.51385
1982 -0.900075 -6.47033
1983 -0.875964 -6.42629
1984 -0.827116 -6.33876
1985 -0.803671 -6.29519
1986 -0.779655 -6.25181
1987 -0.755564 -6.20822
1988 -0.730987 -6.16418
1989 -0.707246 -6.12065
1990 -0.657113 -6.02975
1991 -0.630463 -5.98141
1992 1.24617 -2.08314
1993 1.27489 -2.04293
1994 1.33277 -1.952
1995 1.35686 -1.9084
1996 1.42884 -1.77862
1997 1.45291 -1.73498
1998 1.47671 -1.69184
1999 1.50008 -1.64723
2000 2.15642 1.05929
2001 0.497538 -3.35081
2002 0.495274 -3.29352
2003 0.52303 -3.18347
2004 0.54711 -3.13981
2005 0.571396 -3.09579
2006 0.619889 -3.00787
2007 0.644017 -2.96414
2008 0.692869 -2.87667
2009 0.719562 -2.82863
2010 0.743996 -2.78134
2011 -0.507176 -6.51725
2012 -1.12818 -6.17153
2013 -1.27851 -6.08802
2014 -1.54858 -5.93838
2015 -1.92903 -10.0841
2016 -2.00247 -9.96903
2017 -2.0533 -9.93677
2018 -2.12259 -9.89042
2019 -2.26644 -9.79868
2020 -1.01445 -7.84676
2021 -0.93211 -7.89278
2022 -0.847616 -7.94005
2023 -0.729311 -8.00625
2024 -2.15818 -9.93866
2025 -2.09843 -9.9956
2026 -2.05838 -10.0296
2027 -2.0029 -10.0883
2028 -1.97746 -10.1255
2029 -1.95403 -10.1567
2030 -1.9172 -10.1995
2031 1.50958 -2.45698
2032 1.55724 -2.37043
2033 1.60506 -2.2838
2034 0.204253 -5.22834
2035 -0.855671 -9.09977
2036 -1.00987 -9.48956
2037 -1.00353 -9.87139
2038 -0.482895 -6.47352
2039 -0.397893 -6.52088
2040 -0.30737 -6.57128
2041 -0.227202 -6.61593
2042 -0.14228 -6.66323
2043 -0.0240014 -6.72908
2044 0.101491 -6.79937
2045 2.54892 0.831866
2046 2.64738 0.776965
2047 -2.19997 -8.53018
2048 -2.26711 -8.52193
2049 -1.47947 -8.635
2050 -1.60043 -8.5566
2051 0.292634 -6.73341
2052 0.316767 -6.69032
2053 0.341048 -6.64688
2054 0.00947674 -3.13638
2055 -2.61003 -9.97178
2056 -2.59894 -9.951
2057 -1.24377 -9.57941
2058 -1.21361 -9.50045
2059 -1.18126 -9.41859
2060 -1.37484 -8.0898
2061 -1.17878 -8.19911
2062 -1.03504 -8.27971
2063 -0.916529 -8.34573
2064 -0.790444 -8.41488
2065 -0.426886 -8.61755
2066 -1.19587 -9.59881
2067 -1.2839 -9.56357
2068 -1.40962 -9.5135
2069 -1.55332 -9.44777
2070 -1.67649 -9.37846
2071 -1.84975 -9.21365
2072 -1.88484 -9.18047
2073 -1.89719 -9.1688
2074 -1.95728 -9.11231
2075 -2.04654 -9.02887
2076 -2.17157 -8.90641
2077 -2.24675 -8.83767
2078 -2.29104 -8.80233
2079 -2.24568 -8.8541
2080 -2.27135 -9.05277
2081 -2.32792 -9.04525
2082 -0.907406 -5.77074
2083 -1.05806 -5.68817
2084 -1.9094 -8.03213
2085 -2.15314 -8.07738
2086 -2.23761 -8.09253
2087 -0.38629 -6.29863
2088 -1.00796 -5.95372
2089 -1.15762 -5.86891
2090 -1.43731 -5.71683
2091 1.96437 1.01559
2092 1.99697 0.981364
2093 2.07274 0.959813
2094 0.372881 -2.51389
2095 0.299351 -2.6494
2096 0.234304 -2.75678
2097 0.288228 -2.64832
2098 0.340355 -2.44767
2099 0.194553 -2.74721
2100 0.0313988 -3.09104
2101 -0.0265982 -3.22405
2102 -0.0912643 -3.3677
2103 -0.192571 -3.54787
2104 -0.210284 -3.57861
2105 -0.353002 -3.85993
2106 -0.459841 -4.03931
2107 -0.474015 -4.08838
2108 -0.500993 -4.1308
2109 -0.674741 -4.32509
2110 -0.700672 -4.3727
2111 -0.731791 -4.5872
2112 -0.923896 -4.89419
2113 -0.891465 -4.79644
2114 -0.9083 -4.84541
2115 1.10913 -0.965711
2116 1.1506 -0.930735
2117 1.16715 -0.88375
2118 0.947932 -1.51123
2119 0.959885 -1.46111
2120 0.97078 -1.40993
2121 0.946557 -1.33998
2122 0.979374 -1.22442
2123 -0.309427 -3.77011
2124 -0.260411 -3.68229
2125 -0.228086 -3.64326
2126 -0.203546 -3.59934
2127 -0.179831 -3.55533
2128 -0.0798458 -3.37402
2129 -0.0547716 -3.32903
2130 -0.0212248 -3.29293
2131 -0.0059031 -3.24197
2132 0.571951 -2.10723
2133 0.605958 -2.06876
2134 0.646841 -1.97819
2135 0.701527 -1.89555
2136 0.772027 -1.82008
2137 0.797466 -1.77792
2138 0.861566 -1.69037
2139 0.886053 -1.64723
2140 0.949254 -1.3522
2141 -2.13644 -10.2237
2142 1.18146 -3.26111
2143 1.22948 -3.17444
2144 -1.43274 -9.11592
2145 -1.56105 -9.04689
2146 -1.60585 -9.02138
2147 -1.69229 -8.96874
2148 -1.73238 -8.94277
2149 -1.8152 -8.88992
2150 -2.01486 -8.8115
2151 -2.15439 -8.79369
2152 -2.23664 -8.78319
2153 -2.28798 -8.77654
2154 1.65265 0.134887
2155 -0.93725 -5.47006
2156 -0.913329 -5.42674
2157 -0.840539 -5.2949
2158 -0.792427 -5.20775
2159 -0.741184 -5.11543
2160 -0.690776 -5.024
2161 -0.666316 -4.97976
2162 -0.642246 -4.93622
2163 -0.566817 -4.79884
2164 -0.515696 -4.70736
2165 -0.417694 -4.53014
2166 -0.391314 -4.48244
2167 -0.268397 -4.26017
2168 -0.244169 -4.21636
2169 -0.219872 -4.17243
2170 -0.17149 -4.08494
2171 -0.14558 -4.0381
2172 -0.119157 -3.99032
2173 -0.0711722 -3.90256
2174 -0.0455056 -3.85715
2175 -0.0229277 -3.81453
2176 0.00100937 -3.77013
2177 0.0246979 -3.72526
2178 0.0495976 -3.68247
2179 0.151248 -3.50066
2180 0.175656 -3.45729
2181 0.198419 -3.41468
2182 0.223271 -3.36911
2183 0.320421 -3.19307
2184 0.396786 -3.05525
2185 0.42103 -3.01143
2186 0.599733 -2.6885
2187 0.630213 -2.63557
2188 0.667705 -2.5678
2189 0.6917 -2.52442
2190 0.839856 -2.25663
2191 0.912185 -2.1259
2192 0.960181 -2.03915
2193 1.00877 -1.95084
2194 1.03233 -1.90875
2195 1.08453 -1.81443
2196 1.10864 -1.77085
2197 1.18086 -1.64034
2198 1.2048 -1.59705
2199 1.22896 -1.55339
2200 1.2533 -1.50942
2201 1.30327 -1.41911
2202 1.35415 -1.32716
2203 1.37743 -1.28511
2204 1.42586 -1.19841
2205 1.44992 -1.1541
2206 1.49537 -1.06923
2207 1.52062 -1.02316
2208 1.57074 -0.935789
2209 1.57829 -0.922141
2210 1.62396 -0.839629
2211 1.64771 -0.7967
2212 1.71822 -0.669305
2213 1.76694 -0.581285
2214 1.84319 -0.443509
2215 1.89189 -0.355523
2216 1.94358 -0.261876
2217 1.95678 -0.238286
2218 1.9651 -0.223269
2219 2.00845 -0.137922
2220 2.06036 -0.0487151
2221 2.11098 0.0422165
2222 2.13522 0.0857311
2223 2.15811 0.127556
2224 -0.464548 -9.2727
2225 -1.249 -8.94212
2226 -1.23192 -8.91552
2227 -1.22786 -8.90827
2228 -1.20199 -8.86289
2229 -1.15389 -8.77571
2230 -1.13005 -8.73301
2231 -1.1066 -8.69057
2232 -1.03822 -8.56628
2233 -0.992328 -8.48293
2234 -0.967725 -8.43844
2235 -0.842835 -8.21197
2236 -0.797737 -8.13042
2237 -0.703269 -7.95945
2238 -0.654268 -7.86922
2239 -0.607044 -7.78306
2240 -0.583033 -7.73924
2241 -0.534963 -7.65258
2242 -0.511111 -7.60948
2243 -0.486898 -7.56634
2244 -0.463522 -7.52471
2245 -0.362945 -7.34486
2246 -0.340208 -7.30209
2247 -0.31625 -7.2585
2248 -0.292625 -7.21569
2249 -0.242942 -7.12529
2250 -0.216926 -7.07883
2251 -0.193127 -7.03499
2252 -0.168851 -6.99129
2253 -0.12113 -6.90504
2254 -0.0962358 -6.86032
2255 -0.0480548 -6.77284
2256 1.50724e-05 -6.68562
2257 0.0480956 -6.59803
2258 0.0729741 -6.5533
2259 0.0969429 -6.51012
2260 0.14854 -6.41577
2261 0.244807 -6.24081
2262 0.317497 -6.11043
2263 0.341957 -6.06706
2264 0.414239 -5.9359
2265 0.4626 -5.84865
2266 0.589092 -5.61957
2267 0.613532 -5.57564
2268 0.664664 -5.484
2269 0.714617 -5.39272
2270 0.764019 -5.3035
2271 0.812899 -5.21493
2272 0.865427 -5.12008
2273 0.889422 -5.07646
2274 0.93773 -4.98857
2275 0.962053 -4.94498
2276 0.986033 -4.90164
2277 1.01048 -4.85757
2278 1.03523 -4.81337
2279 1.08539 -4.7223
2280 1.11122 -4.67435
2281 1.15846 -4.58742
2282 1.18306 -4.54319
2283 1.30543 -4.32478
2284 1.33164 -4.27703
2285 1.40538 -4.14324
2286 1.45542 -4.05292
2287 1.47998 -4.00877
2288 1.5032 -3.9667
2289 1.57827 -3.83097
2290 1.60418 -3.78466
2291 1.67742 -3.65193
2292 1.70123 -3.60896
2293 1.72497 -3.56518
2294 1.74925 -3.52065
2295 1.79995 -3.42885
2296 1.84803 -3.33809
2297 1.86823 -3.30088
2298 -1.23842 -8.94643
2299 0.417413 -2.53874
2300 0.564854 -4.37023
2301 0.652357 -4.4196
2302 0.626341 -4.46669
2303 -0.367107 -4.79196
2304 -1.16704 -8.51909
2305 -1.1273 -8.51573
2306 -0.811462 -5.59643
2307 -0.766951 -5.50684
2308 -0.692035 -5.37711
2309 -0.666649 -5.33384
2310 -0.642463 -5.29066
2311 -0.591791 -5.19865
2312 -0.541743 -5.10643
2313 -0.516886 -5.0628
2314 -0.491817 -5.01929
2315 -0.417234 -4.88213
2316 -0.269084 -4.61286
2317 -0.241815 -4.56589
2318 -0.0949295 -4.2985
2319 -0.0717222 -4.25486
2320 -0.0231657 -4.1675
2321 0.00327826 -4.12041
2322 0.0293997 -4.07297
2323 0.104532 -3.93829
2324 0.198752 -3.76756
2325 0.299689 -3.58421
2326 0.323986 -3.53971
2327 1.87855 0.228024
2328 1.90166 0.269773
2329 1.99269 0.382695
2330 -1.10176 -8.97915
2331 2.09618 0.534364
2332 2.07275 0.583024
2333 2.05176 0.626308
2334 -0.555568 -6.6048
2335 -1.17664 -6.25932
2336 -1.3269 -6.17584
2337 -1.59691 -6.02578
2338 -0.651904 -6.77945
2339 -1.27313 -6.43416
2340 -1.42346 -6.35063
2341 -1.70193 -6.19517
2342 1.49455 -1.81481
2343 1.25325 -1.68042
2344 -1.94584 -9.62628
2345 -0.277118 -6.30243
2346 -0.186717 -6.35222
2347 -0.106427 -6.39754
2348 -0.0241971 -6.44347
2349 0.221912 -6.58049
2350 1.08137 -1.99183
2351 0.990534 -1.94139
2352 -2.61272 -10.1995
2353 -1.21219 -7.79405
2354 -1.83482 -7.44681
2355 -1.98305 -7.36501
2356 -2.12186 -7.28759
2357 -0.945681 -7.31103
2358 -1.19609 -8.64056
2359 -0.568193 -6.94487
2360 -0.519393 -6.85382
2361 -0.49517 -6.8097
2362 -0.446804 -6.72238
2363 1.30182 -3.44413
2364 1.39529 -3.49584
2365 1.47404 -3.53941
2366 1.55887 -3.58634
2367 1.80293 -3.72137
2368 1.92218 -3.78735
2369 -1.75833 -9.69579
2370 -2.08139 -9.78711
2371 -1.1727 -9.89667
2372 -0.823377 -7.08951
2373 -1.59487 -6.66092
2374 1.58856 -1.75425
2375 -0.542822 -6.78324
2376 -0.372153 -6.87826
2377 -0.286961 -6.92541
2378 -0.0417929 -7.06091
2379 1.86559 -0.220316
2380 1.72655 -0.143172
2381 1.6369 -0.100726
2382 1.50072 -0.0496925
2383 -1.6601 -10.0074
2384 -1.39707 -9.93948
2385 -1.28889 -9.91963
2386 -1.27807 -9.91758
2387 -2.0864 -10.3408
2388 -2.04558 -10.3068
2389 -1.9643 -10.2384
2390 -2.23127 -8.2859
2391 -1.89588 -10.0412
2392 -2.47659 -10.384
2393 -2.40073 -10.3863
2394 -2.37777 -10.3801
2395 -2.13269 -10.2169
2396 -2.07211 -10.1339
2397 1.34068 -3.17474
2398 1.42615 -3.22214
2399 1.51828 -3.2734
2400 1.59652 -3.31651
2401 1.68139 -3.36284
2402 1.92587 -3.49973
2403 -2.47475 -10.3517
2404 -2.40654 -10.3535
2405 0.575929 -4.55798
2406 0.660972 -4.60526
2407 0.751755 -4.65568
2408 0.831822 -4.70026
2409 0.915792 -4.74606
2410 1.16044 -4.883
2411 1.77398 -1.00109
2412 0.479233 -4.73306
2413 0.564124 -4.78037
2414 0.656646 -4.83193
2415 0.734757 -4.87546
2416 0.819536 -4.9227
2417 1.06308 -5.05842
2418 -0.981846 -8.76028
2419 -0.86454 -8.82563
2420 -0.741787 -8.89397
2421 -0.616384 -8.96356
2422 -0.490886 -9.03332
2423 -0.378631 -9.09467
2424 1.10484 -1.94915
2425 2.89638 1.22545
2426 2.95708 1.33761
2427 -1.99559 -7.74539
2428 -1.9474 -7.65168
2429 -1.87995 -7.52832
2430 -1.73613 -7.26828
2431 -1.71181 -7.2244
2432 -1.54365 -6.92279
2433 -1.49322 -6.82929
2434 -1.46909 -6.78654
2435 -1.39658 -6.65727
2436 -1.37297 -6.61462
2437 -1.34647 -6.56681
2438 -1.29722 -6.4778
2439 -1.22468 -6.34637
2440 -1.20079 -6.30309
2441 -1.1042 -6.12809
2442 -1.08011 -6.08425
2443 -1.03206 -5.99675
2444 -0.957639 -5.86255
2445 -0.931914 -5.81595
2446 2.55092 0.602921
2447 2.59904 0.690048
2448 2.62305 0.733262
2449 -2.25379 -8.91628
2450 -2.30715 -8.90917
2451 1.34914 -3.35528
2452 1.44378 -3.40812
2453 1.52226 -3.45193
2454 1.6069 -3.49919
2455 1.0752 -3.26074
2456 0.693361 -3.04848
2457 0.00409274 -5.59307
2458 0.0887559 -5.64026
2459 0.180199 -5.69108
2460 0.259463 -5.73542
2461 0.344115 -5.7826
2462 0.587749 -5.91841
2463 0.786555 -4.37754
2464 0.878221 -4.42975
2465 0.956944 -4.47398
2466 1.28477 -4.65785
2467 -2.54696 -9.37031
2468 -1.86034 -7.14194
2469 -2.12654 -6.99415
2470 -2.11237 -9.52601
2471 -2.1794 -9.48565
2472 -0.811599 -7.26935
2473 -0.640612 -7.36451
2474 -0.555325 -7.41177
2475 -0.51384 -7.435
2476 -0.402616 -7.49694
2477 -0.312072 -7.54742
2478 -0.236225 -7.58912
2479 -0.90895 -7.4457
2480 -0.820574 -7.49488
2481 -0.737789 -7.54057
2482 -0.652597 -7.58757
2483 -0.40891 -7.72251
2484 1.65277 -3.99281
2485 1.77193 -4.05774
2486 -1.87402 -9.51465
2487 -1.84783 -9.47444
2488 -1.82287 -9.43593
2489 -1.79573 -9.39619
2490 -1.76522 -9.35209
2491 -1.66229 -9.20402
2492 -1.52659 -8.95038
2493 -1.49518 -8.90033
2494 -1.46288 -8.84792
2495 -1.40246 -8.74415
2496 -1.35053 -8.65849
2497 -1.24165 -8.50587
2498 -1.21826 -8.46665
2499 -1.21069 -8.4707
2500 -2.01221 -8.75847
2501 1.63567 -2.64231
2502 1.46886 -2.54931
2503 -1.41975 -9.41893
2504 -1.51861 -9.37526
2505 -1.64711 -9.31648
2506 -1.17077 -9.51764
2507 -1.25345 -9.4847
2508 -0.742051 -9.59347
2509 2.38535 0.735552
2510 2.35216 0.804611
2511 2.22645 1.06411
2512 2.20503 1.10851
2513 2.42916 0.614028
2514 -0.775529 -7.00322
2515 -0.690919 -7.05025
2516 -0.600148 -7.10024
2517 -0.519578 -7.14548
2518 -0.434412 -7.19263
2519 -0.389209 -7.21795
2520 -0.271041 -7.28363
2521 -0.190207 -7.32737
2522 2.12263 -0.0835519
2523 1.98385 -0.00682723
2524 1.84507 0.0703163
2525 1.71772 0.110878
2526 -2.02773 -9.22892
2527 -2.07261 -9.22293
2528 0.430603 -4.82112
2529 0.515425 -4.86833
2530 0.608037 -4.91987
2531 0.686311 -4.96343
2532 0.770969 -5.01053
2533 1.0147 -5.14618
2534 1.25795 -5.28084
2535 -2.12047 -7.6136
2536 -2.16449 -7.59019
2537 2.67441 1.05664
2538 -0.122664 -7.1309
2539 1.07578 -4.07372
2540 1.15428 -4.1171
2541 1.2391 -4.16397
2542 0.899265 -3.9743
2543 0.983632 -4.02192
2544 -1.07746 -7.74976
2545 -1.02851 -7.66214
2546 -0.980243 -7.57473
2547 -0.956592 -7.53188
2548 -0.885145 -7.40262
2549 -0.861277 -7.35838
2550 -0.837229 -7.31578
2551 -0.762255 -7.17964
2552 -0.738111 -7.13646
2553 -0.714602 -7.09363
2554 -0.666924 -7.00711
2555 -0.617452 -6.91769
2556 -0.590845 -6.8703
2557 -0.566992 -6.82709
2558 -0.494773 -6.69644
2559 -0.470313 -6.65213
2560 -0.422026 -6.56459
2561 -0.373998 -6.47731
2562 -0.325521 -6.3898
2563 -0.30132 -6.34611
2564 -0.224627 -6.20728
2565 -0.200499 -6.16385
2566 -0.176795 -6.12059
2567 -0.128572 -6.03356
2568 -0.0559722 -5.9024
2569 -0.0319452 -5.85896
2570 0.0403686 -5.72784
2571 0.214873 -5.41181
2572 0.239307 -5.36775
2573 0.288799 -5.27559
2574 0.340862 -5.184
2575 0.390064 -5.09519
2576 0.438991 -5.00685
2577 0.49145 -4.91165
2578 0.588246 -4.73678
2579 0.612331 -4.69313
2580 0.637115 -4.64867
2581 0.711756 -4.51432
2582 0.737226 -4.46733
2583 0.76155 -4.42341
2584 0.931431 -4.1161
2585 0.957939 -4.06815
2586 1.03241 -3.93375
2587 1.08092 -3.84602
2588 1.10596 -3.80068
2589 1.20377 -3.6239
2590 1.22999 -3.57644
2591 1.32455 -3.39968
2592 1.37299 -3.31199
2593 1.4756 -3.13075
2594 1.50033 -3.08837
2595 1.5486 -3.00133
2596 1.5727 -2.95787
2597 1.59746 -2.91324
2598 1.20067 -3.03548
2599 0.565758 -2.53695
2600 2.7987 1.27997
2601 -0.868046 -7.58103
2602 -0.785462 -7.62687
2603 -0.700503 -7.67404
2604 -0.456742 -7.80892
2605 1.71518 -0.491819
2606 1.57619 -0.414885
2607 -0.458921 -6.43012
2608 -1.23009 -6.00061
2609 -1.49981 -5.8502
2610 -0.416684 -9.28644
2611 -0.51128 -9.52161
2612 0.153792 -5.32024
2613 0.33202 -5.41925
2614 0.410156 -5.46266
2615 0.494952 -5.50977
2616 0.738321 -5.64598
2617 -0.751571 -6.95994
2618 -1.52286 -6.53066
2619 -1.58459 -6.49556
2620 -1.33175 -8.23578
2621 -1.18552 -8.31718
2622 -1.08624 -8.37249
2623 -0.842221 -8.50825
2624 -0.725286 -8.57339
2625 -0.602215 -8.64181
2626 -0.47695 -8.71178
2627 -0.352108 -8.78123
2628 2.45196 0.853201
2629 2.60021 0.922805
2630 -2.39831 -10.0611
2631 -2.47338 -10.0293
2632 -2.51671 -10.0109
2633 -1.69363 -6.83975
2634 -1.99287 -6.67426
2635 -0.922082 -7.26879
2636 0.994759 -3.79832
2637 0.827993 -3.70561
2638 0.66936 -3.6183
2639 0.448664 -3.49453
2640 0.924482 -3.53086
2641 0.766976 -3.44197
2642 0.544243 -3.31804
2643 2.52608 0.787353
2644 -2.51913 -9.48625
2645 -2.48321 -9.40926
2646 -2.46933 -9.41756
2647 -2.55588 -9.54959
2648 -0.961431 -8.14631
2649 -0.885108 -8.18857
2650 -0.800609 -8.23535
2651 -0.716194 -8.28208
2652 -1.80092 -8.34776
2653 1.5004 -1.23812
2654 -0.906882 -7.8461
2655 -0.809298 -7.67016
2656 -0.713857 -7.49742
2657 -0.689798 -7.45312
2658 -0.666205 -7.41104
2659 -0.591109 -7.27501
2660 -0.567648 -7.23241
2661 -0.54351 -7.18865
2662 -0.495852 -7.10244
2663 -0.445001 -7.01169
2664 -0.420281 -6.96559
2665 -0.396164 -6.92196
2666 -0.323839 -6.79131
2667 -0.299363 -6.74808
2668 -0.251251 -6.65967
2669 -0.203144 -6.57247
2670 -0.154518 -6.48483
2671 -0.0544067 -6.30164
2672 -0.029909 -6.25882
2673 -0.00565452 -6.21557
2674 0.0422409 -6.12858
2675 0.114586 -5.9974
2676 0.138682 -5.95391
2677 0.211107 -5.82286
2678 0.385817 -5.50672
2679 0.461167 -5.36996
2680 0.511532 -5.27931
2681 0.560723 -5.19025
2682 0.609698 -5.10185
2683 0.662147 -5.00678
2684 0.759016 -4.83169
2685 0.783033 -4.78837
2686 0.882224 -4.6087
2687 0.908361 -4.56152
2688 0.932478 -4.51741
2689 0.980977 -4.43041
2690 1.10243 -4.21131
2691 1.12825 -4.16385
2692 1.20225 -4.03014
2693 1.25194 -3.9405
2694 1.27598 -3.8965
2695 1.37436 -3.7193
2696 1.40079 -3.67148
2697 1.49788 -3.49612
2698 1.54647 -3.40826
2699 1.64695 -3.22682
2700 1.67102 -3.18312
2701 1.7183 -3.09582
2702 -0.117074 -5.81158
2703 0.0594295 -5.90955
2704 0.223361 -6.00103
2705 0.467022 -6.13663
2706 -1.92 -9.20496
2707 -1.9441 -9.24373
2708 -1.68383 -9.39412
2709 0.174974 -3.9866
2710 0.201217 -3.93935
2711 0.225471 -3.89569
2712 0.249937 -3.85163
2713 0.274266 -3.80784
2714 0.375351 -3.62584
2715 0.399669 -3.58197
2716 0.520195 -3.36208
2717 0.596386 -3.22386
2718 0.620719 -3.18025
2719 0.64499 -3.13643
2720 0.716933 -3.0047
2721 1.72954 -2.46806
2722 1.07736 -2.10421
2723 1.03271 -2.07942
2724 0.905178 -2.00862
2725 1.56984 -0.754247
2726 -1.05323 -9.47216
2727 -0.900583 -9.08178
2728 1.46301 -2.95371
2729 -2.08594 -9.32856
2730 -2.01929 -9.36944
2731 0.304745 -5.04767
2732 0.482629 -5.14675
2733 0.645492 -5.23747
2734 0.889158 -5.37321
2735 1.13259 -5.50882
2736 1.8222 -3.96793
2737 1.84844 -3.92058
2738 -0.109505 -6.21451
2739 0.298864 -6.44184
2740 0.417566 -6.50793
2741 -0.211029 -6.39635
2742 -0.0454898 -6.48784
2743 0.197816 -6.62408
2744 -1.40962 -9.79406
2745 -1.31414 -9.783
2746 -1.90464 -9.83938
2747 -1.89244 -9.84926
2748 0.742864 -3.486
2749 -1.82407 -8.64208
2750 -1.58464 -8.79783
2751 -1.62354 -8.77252
2752 -1.70607 -8.71884
2753 -1.99387 -8.60607
2754 -2.20748 -8.58073
2755 -2.27122 -8.57163
2756 -2.21551 -10.1586
2757 -2.13691 -10.0463
2758 -2.00909 -9.87813
2759 0.766949 -2.68053
2760 0.76898 -2.62408
2761 0.774142 -2.57058
2762 1.1572 -1.85487
2763 1.18126 -1.81118
2764 1.294 -1.64656
2765 -0.988647 -7.79992
2766 -0.821701 -7.89338
2767 -0.576623 -8.02978
2768 -0.396492 -8.13131
2769 0.527446 -4.64577
2770 0.704838 -4.74474
2771 0.868415 -4.83486
2772 1.11208 -4.97025
2773 -0.379578 -6.7024
2774 -0.214615 -6.7943
2775 2.13199 0.611997
2776 1.41477 -3.04084
2777 -1.82249 -6.36521
2778 0.8294 -4.51809
2779 0.993389 -4.60828
2780 1.23714 -4.74393
2781 -1.15688 -8.50052
2782 -0.913038 -8.63567
2783 -0.795733 -8.7008
2784 -0.672821 -8.76922
2785 -0.5481 -8.83843
2786 -0.422396 -8.9087
2787 -1.41135 -8.35844
2788 -1.45117 -8.22796
2789 -1.89983 -8.07659
2790 -2.15587 -8.12388
2791 -2.24033 -8.13854
2792 1.54181 -1.7842
2793 1.63656 -1.72254
2794 1.51505 -1.21159
2795 1.54023 -1.16552
2796 0.353968 -4.95918
2797 -0.77243 -7.4075
2798 -0.60468 -7.50122
2799 -1.32445 -7.99785
2800 -2.09577 -7.5692
2801 -2.15591 -7.53514
2802 1.19788 -3.85288
2803 1.36141 -3.9428
2804 1.605 -4.07942
2805 -1.20658 -5.95805
2806 -1.7895 -9.12031
2807 -1.63813 -8.88434
2808 -1.45176 -8.59266
2809 -1.42457 -8.55105
2810 -1.35562 -8.44297
2811 2.69853 1.09901
2812 -2.15727 -9.60087
2813 -2.2248 -9.56026
2814 -2.39698 -9.45741
2815 1.55223 -0.460124
2816 1.62654 -0.324058
2817 1.65055 -0.280565
2818 1.67562 -0.235326
2819 1.74887 -0.10289
2820 1.79525 -0.019254
2821 1.81857 0.0224943
2822 1.89423 0.161213
2823 1.91856 0.204002
2824 1.94282 0.246574
2825 -0.647837 -7.18665
2826 -0.482059 -7.27898
2827 -0.318789 -7.36997
2828 1.31773 -0.557723
2829 1.33661 -0.45782
2830 -1.50475 -8.49876
2831 1.14468 -3.52897
2832 1.32231 -3.62781
2833 1.48559 -3.71867
2834 1.72941 -3.85434
2835 -0.591765 -9.21597
2836 -1.11082 -8.41703
2837 -0.98394 -8.18711
2838 -0.916275 -8.06449
2839 -0.724286 -7.71761
2840 -0.628607 -7.54458
2841 -0.581198 -7.45866
2842 -0.505896 -7.32219
2843 -0.458318 -7.23595
2844 -0.410803 -7.14984
2845 -0.360792 -7.05921
2846 -0.335189 -7.01281
2847 -0.311136 -6.96922
2848 -0.239224 -6.8389
2849 -0.166233 -6.70662
2850 -0.11828 -6.61973
2851 -0.0697336 -6.53175
2852 0.0306531 -6.34884
2853 0.126782 -6.17561
2854 0.199287 -6.04458
2855 0.295802 -5.86999
2856 0.470607 -5.55379
2857 0.545883 -5.41764
2858 0.596216 -5.3266
2859 0.694419 -5.14899
2860 0.746921 -5.05403
2861 0.843806 -4.8788
2862 0.891638 -4.7907
2863 0.966459 -4.6558
2864 1.01719 -4.56492
2865 1.06565 -4.47762
2866 1.18683 -4.25848
2867 1.21306 -4.21105
2868 1.28693 -4.07729
2869 1.33676 -3.98736
2870 1.45887 -3.76657
2871 1.58256 -3.54324
2872 1.63114 -3.45532
2873 1.73145 -3.27329
2874 2.05837 0.127982
2875 1.76357 0.257625
2876 -1.84588 -8.67706
2877 -1.0827 -5.73319
2878 -1.37766 -5.56623
2879 -0.410512 -6.34248
2880 -1.1821 -5.91373
2881 0.872673 -4.02164
2882 1.05111 -4.11797
2883 1.45692 -4.34674
2884 0.763089 -6.14042
2885 1.04753 -5.69897
2886 -0.149224 -7.40775
2887 -0.458265 -9.52937
2888 -0.383931 -8.21631
2889 -0.257121 -7.61662
2890 0.527689 -6.39954
2891 -2.55671 -10.1378
2892 -2.58388 -10.2499
2893 1.27283 -2.90466
2894 -1.09833 -9.45406
2895 -0.943861 -9.06444
2896 -1.40288 -9.60776
2897 -1.3475 -9.35205
2898 -1.19676 -8.96326
2899 -0.97011 -7.35563
2900 -1.74103 -6.92556
2901 -0.388061 -9.18438
2902 2.45291 0.657655
2903 1.03342 -5.68794
2904 1.08383 -5.59719
2905 1.18175 -5.42021
2906 1.23406 -5.32554
2907 -0.625343 -8.11997
2908 2.12483 0.368433
2909 -1.8253 -8.31124
2910 -2.17756 -8.37903
2911 -2.25622 -8.3695
2912 -2.04169 -8.98905
2913 -1.91225 -9.04128
2914 -1.82975 -9.09455
2915 -1.70537 -9.17653
2916 -1.48496 -9.29185
2917 -1.38634 -9.33621
2918 -1.22122 -9.40259
2919 -1.13889 -9.43674
2920 -0.831617 -9.56142
2921 -0.653094 -9.62825
2922 1.1751 -1.22715
2923 1.78949 -0.357987
2924 -0.0236576 -3.22498
2925 0.481497 -3.57977
2926 -2.45598 -9.96952
2927 -2.49911 -9.94454
2928 1.46798 -3.36436
2929 -0.579341 -6.64876
2930 -1.35103 -6.21953
2931 -1.57322 -8.51351
2932 2.2183 0.654024
2933 2.48575 0.784016
2934 -1.4011 -9.89929
2935 1.00211 -3.39197
2936 -1.87971 -8.16811
2937 -2.16204 -8.22377
2938 -2.24697 -8.23948
2939 -1.85809 -10.1002
2940 -2.11867 -10.3048
2941 -2.0803 -10.2687
2942 -2.00423 -10.1995
2943 0.552108 -4.60111
2944 0.728526 -4.69972
2945 1.13547 -4.92765
2946 -2.11139 -9.37053
2947 -2.04355 -9.41123
2948 -0.283407 -6.52777
2949 0.125698 -6.75562
2950 -0.469202 -9.53565
2951 0.255443 -5.1363
2952 0.433464 -5.23571
2953 0.839813 -5.46263
2954 -0.846717 -7.13259
2955 -1.61825 -6.70329
2956 -2.51154 -10.1545
2957 -0.0665022 -7.10565
2958 -0.575978 -7.05734
2959 -0.365298 -7.17519
2960 -0.248321 -7.24014
2961 -0.167048 -7.28485
2962 -2.07973 -9.26925
2963 -2.0613 -9.28638
2964 0.148107 -6.88196
2965 -1.19484 -8.37243
2966 -0.640163 -9.00637
2967 -0.514844 -9.07612
2968 -1.00549 -8.80308
2969 -0.888144 -8.86835
2970 -0.765375 -8.9367
2971 -0.338674 -7.59538
2972 0.900518 -3.57426
2973 0.977814 -3.43602
2974 1.02619 -3.34829
2975 1.09956 -3.21712
2976 1.14799 -3.12926
2977 1.17404 -3.08187
2978 1.24873 -2.94836
2979 1.29685 -2.86113
2980 1.41878 -2.64008
2981 -1.03822 -7.88989
2982 -1.51734 -8.88225
2983 2.32646 1.11193
2984 2.50115 1.19452
2985 -0.509614 -9.26003
2986 -2.43668 -9.64743
2987 -2.42261 -9.59604
2988 -2.36479 -9.27421
2989 -2.26315 -8.46987
2990 -2.25032 -8.29003
2991 -2.24381 -8.19242
2992 -2.23307 -8.02442
2993 -1.79956 -6.32303
2994 -1.74068 -6.23057
2995 -1.64507 -6.11287
2996 -1.52515 -5.89601
2997 0.67667 -4.37629
2998 0.853532 -4.4743
2999 2.08252 0.368104
3000 1.91118 0.346288
3001 -1.07662 -8.93251
3002 -0.959421 -8.99765
3003 -0.837356 -9.06676
3004 -0.712402 -9.13632
3005 -0.587539 -9.20766
3006 -1.11287 -7.6142
3007 -1.88412 -7.18495
3008 2.14864 1.12158
3009 2.33651 1.17253
3010 -1.43976 -9.61146
3011 -1.29702 -9.59724
3012 0.517535 -2.56422
3013 0.820435 -2.07478
3014 -2.03743 -9.24551
3015 -1.96869 -9.28735
3016 -2.10454 -10.2427
3017 -2.28209 -9.83548
3018 -2.24874 -9.75991
3019 -2.22465 -9.71551
3020 -0.623841 -7.1436
3021 -0.413305 -7.26139
3022 -0.295179 -7.32684
3023 -0.214483 -7.37101
3024 -1.25439 -6.04458
3025 1.5461 0.114927
3026 1.95735 -0.0545794
3027 0.406697 -4.86441
3028 0.584052 -4.96326
3029 0.990613 -5.18985
3030 1.68688 0.0312908
3031 1.79451 0.34154
3032 -2.0828 -7.69694
3033 -2.14734 -7.66262
3034 1.88781 -0.180243
3035 -1.25679 -7.87509
3036 -2.02818 -7.44626
3037 -0.394519 -9.27769
3038 -2.29472 -9.67322
3039 -1.76046 -8.80468
3040 -0.6761 -6.82325
3041 -1.44705 -6.39339
3042 -0.352595 -7.40717
3043 -0.891777 -7.62411
3044 2.59402 1.36751
3045 2.77283 1.23292
3046 1.69022 -0.536849
3047 1.59285 -0.712918
3048 -2.18501 -8.42905
3049 0.392925 -6.55223
3050 0.129533 -5.36444
3051 0.307659 -5.46333
3052 0.714273 -5.6892
3053 -1.91786 -7.94207
3054 -2.14422 -7.9408
3055 -2.1833 -9.97259
3056 -2.03113 -10.1749
3057 1.8939 0.811816
3058 -0.866693 -8.55336
3059 -0.749879 -8.61807
3060 -0.627126 -8.68635
3061 -0.501744 -8.75598
3062 -1.35978 -8.27892
3063 -0.986087 -9.04753
3064 -0.911029 -8.90968
3065 1.81429 -0.312679
3066 -0.788699 -8.97887
3067 -0.663465 -9.04847
3068 -0.570953 -8.88007
3069 -1.99998 -8.65754
3070 1.50056 -0.879282
3071 1.54684 -0.796135
3072 1.64066 -0.626629
3073 1.76537 -0.401411
3074 1.93403 -0.0964673
3075 2.0343 0.0844186
3076 2.08153 0.16966
3077 -2.13877 -7.85471
3078 -0.538221 -9.11856
3079 -0.445244 -8.95017
3080 -0.823182 -8.27641
3081 -0.907644 -8.22949
3082 2.5024 0.748405
3083 2.30451 1.15766
3084 -1.10798 -5.77867
3085 -0.141191 -5.85494
3086 0.0351063 -5.95314
3087 0.442746 -6.1802
3088 -0.0438767 -5.68096
3089 0.131791 -5.77872
3090 0.539404 -6.00556
3091 2.61744 0.95605
3092 -1.64204 -6.74635
3093 -1.49827 -6.4861
3094 -1.37485 -6.26265
3095 -1.02823 -8.84448
3096 -0.671488 -8.20065
3097 -0.528437 -7.93907
3098 -0.262093 -7.45744
3099 -0.125092 -7.19205
3100 -0.00430059 -6.97216
3101 0.0675002 -6.86081
3102 0.077295 -6.84309
3103 0.174107 -6.66812
3104 0.273927 -6.48633
3105 0.371405 -6.31127
3106 0.789596 -5.55364
3107 0.938127 -5.28463
3108 1.0872 -5.01501
3109 1.30976 -4.61301
3110 1.43074 -4.39482
3111 1.53102 -4.21319
3112 1.58004 -4.1243
3113 1.70351 -3.90131
3114 1.4193 -3.4524
3115 -1.67833 -8.85809
3116 -1.49147 -8.56683
3117 -1.46482 -8.52522
3118 -1.39725 -8.41996
3119 -2.42939 -10.1212
3120 -1.43722 -8.39788
3121 -1.07018 -9.01474
3122 -2.05558 -9.81991
3123 -1.08326 -7.97164
3124 -0.939667 -7.71102
3125 -0.79669 -7.45153
3126 0.50326 -4.68955
3127 0.680805 -4.78822
3128 -0.133866 -6.25801
3129 -0.235252 -6.44033
3130 -0.213489 -5.98633
3131 0.846705 -4.06891
3132 0.947514 -3.88654
3133 1.68465 -2.55295
3134 -2.352 -9.9708
3135 -2.19266 -8.47928
3136 2.17927 1.08163
3137 -1.87735 -10.0684
3138 -1.96826 -9.92958
3139 -1.49072 -8.83917
3140 -1.36541 -8.89292
3141 -0.396529 -9.29201
3142 -1.88961 -8.12346
3143 -2.15898 -8.17586
3144 -0.414542 -6.73982
3145 0.802247 -4.56455
3146 -1.87006 -8.21265
3147 -2.16537 -8.27215
3148 -0.245248 -5.79737
3149 -1.32957 -9.63727
3150 -0.290107 -7.88387
3151 -0.269248 -7.8082
3152 1.17341 -3.89712
3153 -1.55177 -8.93684
3154 -1.40373 -9.01761
3155 -0.671594 -7.22952
3156 1.29597 -3.67546
3157 -0.476675 -3.91639
3158 1.19966 -0.139493
3159 2.47063 1.25567
3160 0.531503 -5.05833
3161 1.43725 -0.270302
3162 0.902174 -4.38651
3163 1.02333 -4.16715
3164 -0.331572 -6.61523
3165 -0.0373768 -6.0841
3166 0.382475 -5.32795
3167 1.1239 -3.98651
3168 -2.14951 -8.02417
3169 -1.92131 -9.87453
3170 2.95739 1.46013
3171 1.44107 0.151523
3172 1.18331 -0.279741
3173 1.94275 -0.38157
3174 1.91647 -0.38497
3175 1.48567 -0.184132
3176 1.46203 -0.202234
3177 1.84625 -0.37128
3178 1.89754 -0.399952
3179 1.91125 -0.434098
3180 1.95105 -0.464864
3181 1.86304 -0.355753
3182 1.81915 -0.915006
3183 1.81524 -0.900366
3184 1.81477 -0.325594
3185 1.79874 -0.346475
3186 1.50313 -0.223772
3187 1.40054 -0.200063
3188 1.4527 -0.213342
3189 1.51583 -0.180013
3190 1.35333 -0.249107
3191 1.40683 -0.0956924
3192 1.35932 -0.0889136
3193 1.28638 -0.412651
3194 1.27686 -0.42852
3195 1.22706 -0.358399
3196 1.20282 -0.480112
3197 1.22849 -0.728039
3198 1.24393 -0.680441
3199 1.24933 -0.602396
3200 1.25116 -0.563873
3201 1.26254 -0.462854
3202 1.27479 -0.389878
3203 1.2698 -0.291065
3204 1.2987 -0.220239
3205 1.29411 -0.138264
3206 1.24505 -0.411688
3207 1.15994 -0.731662
3208 1.17265 -0.70764
3209 1.2871 -0.478387
3210 1.2975 -0.363147
3211 1.35936 -0.185814
3212 1.31907 -0.249212
3213 1.35649 -0.012524
3214 1.39256 0.0336854
3215 1.29415 -0.422788
3216 -0.448528 -3.84119
3217 -0.48253 -3.90017
3218 -0.826963 -4.51905
3219 -1.01396 -4.91144
3220 -0.941788 -4.76217
3221 -1.40713 -5.61174
3222 -1.37774 -5.51219
3223 -1.4078 -5.58234
3224 -1.43083 -5.66084
3225 -1.41711 -5.66722
3226 -1.42361 -5.72185
3227 -1.48802 -5.85677
3228 -1.51356 -5.90228
3229 -1.44078 -5.76922
3230 -1.69112 -6.20194
3231 -1.63331 -6.11929
3232 -1.58524 -6.0322
3233 -1.53701 -5.94478
3234 -1.72935 -6.23778
3235 -1.65844 -6.16262
3236 -1.6092 -6.0756
3237 -1.56102 -5.9883
3238 -1.76914 -6.27855
3239 -0.403483 -6.7458
3240 -0.427701 -6.78978
3241 -1.79138 -10.1092
3242 -2.22005 -10.4636
3243 -1.54632 -9.9738
3244 -1.67406 -9.99168
3245 -2.11997 -7.26994
3246 -2.12718 -7.24878
3247 -2.15914 -7.47862
3248 -2.04144 -7.11466
3249 -2.0604 -7.14533
3250 -2.11754 -7.24008
3251 -2.08515 -7.18869
3252 -2.1616 -7.08634
3253 -2.16442 -7.5202
3254 -2.17583 -7.59745
3255 -2.13226 -7.63406
3256 -2.24812 -7.91499
3257 -2.23687 -7.89435
3258 -2.07485 -6.79441
3259 -2.28243 -8.57003
3260 -2.50829 -9.91738
3261 -2.48755 -9.82694
3262 -2.42957 -9.53695
3263 -2.3622 -9.18431
3264 -2.40263 -9.39877
3265 -2.41227 -9.45013
3266 -2.60724 -10.2667
3267 -2.30539 -8.80821
3268 -2.30983 -8.84397
3269 -2.33993 -9.04365
3270 -2.33275 -8.99832
3271 -2.27774 -8.52056
3272 -2.63068 -10.2607
3273 -2.55982 -10.1041
3274 -2.54885 -10.1116
3275 -2.53338 -10.0664
3276 -2.5812 -10.2632
3277 -1.97855 -6.62014
3278 -1.81671 -6.32476
3279 -1.43766 -5.76223
3280 -1.44527 -5.71442
3281 -1.41455 -5.72644
3282 -1.40703 -5.67245
3283 -1.38271 -5.62454
3284 -1.35357 -5.52261
3285 -1.43357 -5.61974
3286 -0.531689 -5.5978
3287 -0.110621 -7.20021
3288 0.0307483 -6.95082
3289 0.888766 -1.43092
3290 0.51515 -2.05764
3291 0.18754 -2.53922
3292 -2.32737 -9.65331
3293 -2.14255 -9.76674
3294 -2.04638 -9.61449
3295 -1.71494 -10.0392
3296 -1.39483 -9.95351
3297 -1.72188 -10.0054
3298 -1.67641 -10.0109
3299 -1.68284 -10.0253
3300 -1.76073 -9.93446
3301 -1.79485 -9.9335
3302 1.80794 0.77744
3303 1.551 0.134056
3304 -2.02279 -8.29075
3305 -1.76486 -7.19441
3306 -1.60894 -7.03884
3307 -1.96919 -9.733
3308 -2.34828 -10.4918
3309 -2.12496 -10.3911
3310 -2.19107 -10.4344
3311 -0.684345 -9.84058
3312 -0.779322 -9.84465
3313 -0.419149 -9.45175
3314 -0.461687 -9.26372
3315 -0.413797 -9.27674
3316 -0.367017 -9.11784
3317 -0.213531 -8.62989
3318 -0.240155 -8.53591
3319 -0.279641 -7.76459
3320 -0.356826 -7.99715
3321 -0.280614 -7.82779
3322 -0.197099 -7.5183
3323 0.189984 -6.91024
3324 0.226693 -6.87637
3325 0.247732 -6.41338
3326 0.609576 -6.33651
3327 0.488066 -6.48351
3328 0.622687 -6.3326
3329 1.248 -4.95478
3330 1.34971 -4.71878
3331 2.0246 -3.80273
3332 1.99519 -3.61157
3333 2.03465 -3.80293
3334 1.91593 -3.49418
3335 1.7421 -3.05204
3336 1.7307 -2.95085
3337 1.66991 -2.78532
3338 1.66617 -2.59174
3339 1.77724 -2.43744
3340 1.69618 -1.75524
3341 1.71067 -1.76324
3342 1.74786 -1.66512
3343 1.71791 -1.64962
3344 1.72814 -1.5246
3345 1.80434 -0.953487
3346 1.81029 -3.16365
3347 1.75401 -3.06469
3348 1.66417 -1.47359
3349 1.72587 -1.0864
3350 1.96033 -0.451244
3351 1.70131 -2.90985
3352 -2.45004 -9.64081
3353 -2.15124 -7.42125
3354 1.90925 1.20095
3355 1.87106 1.0138
3356 1.84155 1.00716
3357 1.81213 0.860224
3358 1.89283 0.835888
3359 -1.96796 -7.69685
3360 -0.602078 -8.07745
3361 -0.871315 -7.983
3362 -2.17243 -7.64722
3363 -2.18212 -7.63953
3364 0.497305 -6.46073
3365 -0.212732 -7.54146
3366 -1.64651 -6.46278
3367 -1.60062 -6.54207
3368 -1.59635 -6.52805
3369 -1.62506 -6.52887
3370 -1.44651 -6.67471
3371 -1.60168 -6.79649
3372 -1.68041 -6.95914
3373 -1.54151 -6.58518
3374 -1.45555 -6.65034
3375 -1.46824 -6.70103
3376 -1.60891 -6.79648
3377 -1.62405 -6.81439
3378 -1.68474 -6.95687
3379 -1.69644 -6.98482
3380 -1.68949 -6.9778
3381 -1.50349 -6.74058
3382 -1.52255 -6.75713
3383 -1.52756 -6.7362
3384 -1.63367 -6.87304
3385 -1.64408 -6.86714
3386 -1.46146 -6.61807
3387 -1.12908 -7.64419
3388 0.191062 -3.05951
3389 0.240915 -2.85809
3390 -1.17936 -9.76834
3391 -1.25398 -9.24817
3392 -1.2991 -9.23001
3393 -1.13387 -9.29652
3394 -1.1739 -9.28041
3395 -1.09099 -9.31378
3396 -1.04925 -9.33059
3397 -1.00565 -9.35085
3398 -1.00101 -9.3389
3399 -1.19524 -9.26026
3400 -1.2095 -9.25455
3401 -1.33452 -9.20447
3402 -1.39961 -9.69272
3403 -1.38246 -9.74042
3404 -1.52631 -9.52208
3405 0.0294208 -3.37595
3406 0.102491 -3.24484
3407 0.12665 -3.20098
3408 0.150862 -3.15669
3409 0.323706 -2.84301
3410 0.425097 -2.66313
3411 0.496671 -2.53135
3412 0.520481 -2.48499
3413 0.591335 -2.3552
3414 0.61561 -2.31142
3415 0.640494 -2.26779
3416 0.66614 -2.22022
3417 0.690574 -2.17361
3418 0.681625 -2.16839
3419 0.715251 -2.13117
3420 0.739807 -2.08672
3421 0.763818 -2.04362
3422 0.787888 -2.00034
3423 0.812031 -1.9569
3424 0.836476 -1.91236
3425 0.860265 -1.86907
3426 0.884229 -1.82625
3427 0.910572 -1.77835
3428 0.936228 -1.73191
3429 0.960245 -1.68843
3430 0.984642 -1.64457
3431 1.00811 -1.60196
3432 1.03237 -1.55803
3433 1.05634 -1.51464
3434 1.08065 -1.47098
3435 1.1048 -1.42739
3436 1.15502 -1.33655
3437 1.18051 -1.29047
3438 1.20585 -1.24475
3439 1.22895 -1.20286
3440 1.25323 -1.15902
3441 1.27728 -1.11522
3442 1.30153 -1.07206
3443 1.32573 -1.02784
3444 1.34943 -0.986027
3445 1.37371 -0.941409
3446 1.40274 -0.88877
3447 1.42929 -0.840808
3448 1.47711 -0.757396
3449 -0.756315 -7.36059
3450 -0.731669 -7.31383
3451 -0.705606 -7.26714
3452 -0.657912 -7.18116
3453 -0.681791 -7.22397
3454 -0.633975 -7.13792
3455 -0.610466 -7.09481
3456 -0.592331 -7.08595
3457 -0.587423 -7.05098
3458 -0.579934 -7.05512
3459 -0.563443 -7.00773
3460 -0.551781 -7.01426
3461 -0.407228 -3.89229
3462 -0.424855 -3.81837
3463 1.20883 -0.782221
3464 1.09964 -1.01739
3465 1.08227 -0.985978
3466 1.07633 -0.970067
3467 0.993215 -1.07225
3468 1.06536 -1.19877
3469 1.09449 -1.18286
3470 0.863687 -1.4276
3471 0.913983 -1.35489
3472 0.880553 -1.45242
3473 -2.60224 -10.2454
3474 -1.75018 -9.91392
3475 -0.933427 -9.86005
3476 -0.900377 -9.87063
3477 -0.931089 -9.6407
3478 -0.924684 -9.66236
3479 -1.72311 -9.95986
3480 -1.60619 -9.64944
3481 -1.63327 -9.66486
3482 -1.49788 -9.95835
3483 -1.50562 -9.92019
3484 -2.12921 -9.80252
3485 -2.50422 -10.2674
3486 -2.54001 -10.2588
3487 -2.46635 -10.2882
3488 -2.54316 -10.0938
3489 -2.57147 -10.1412
3490 -2.5473 -10.0632
3491 -0.195353 -7.50784
3492 -0.191704 -7.49637
3493 -0.347602 -8.00931
3494 -0.400469 -8.10078
3495 -0.381022 -8.09507
3496 0.496607 -6.44448
3497 1.94467 -3.44277
3498 1.71419 -1.64797
3499 1.60404 -1.58736
3500 1.71545 -1.37518
3501 1.71644 -1.69231
3502 1.70755 -1.69763
3503 1.73267 -2.64339
3504 1.65395 -2.76998
3505 1.67351 -2.95652
3506 1.7596 -2.44357
3507 1.73526 -2.45724
3508 1.62706 -2.58008
3509 1.68871 -2.96517
3510 1.54418 -3.22655
3511 1.56835 -3.18284
3512 1.59228 -3.13955
3513 1.6155 -3.09515
3514 1.64048 -3.05239
3515 1.66465 -3.00867
3516 1.64942 -3.00021
3517 1.6253 -3.04395
3518 1.60112 -3.08746
3519 1.57718 -3.13118
3520 1.55324 -3.1746
3521 1.52918 -3.21821
3522 1.72768 -2.81785
3523 1.23521 -4.98104
3524 -2.25973 -8.41974
3525 -0.731902 -9.61344
3526 -0.732923 -9.59704
3527 -1.95868 -8.86472
3528 -0.654754 -9.18024
3529 0.274393 -6.31457
3530 -2.22195 -7.85654
3531 -1.69709 -6.48989
3532 -1.60316 -6.03709
3533 -1.61383 -6.52824
3534 -1.45683 -6.61035
3535 -0.0936232 -7.15477
3536 0.024772 -6.92161
3537 0.0565153 -6.88745
3538 -0.155782 -7.26366
3539 -0.137779 -7.24596
3540 0.00854591 -6.98467
3541 0.0356034 -6.94003
3542 -1.02556 -4.96832
3543 -1.16472 -5.28588
3544 -1.14134 -5.35561
3545 -1.16571 -5.39882
3546 -1.19238 -5.32735
3547 -1.25933 -5.40174
3548 -0.802613 -4.66769
3549 0.373716 -2.36008
3550 0.162625 -3.00024
3551 0.11648 -3.01791
3552 -0.0105149 -3.42809
3553 -0.00514151 -3.41428
3554 0.00597555 -3.42057
3555 -0.373914 -3.88492
3556 -0.343011 -3.86551
3557 -0.49828 -4.12611
3558 0.488616 -2.18406
3559 1.22662 -0.767777
3560 1.09137 -0.955051
3561 1.17865 -1.2701
3562 1.0177 -1.24297
3563 -1.20576 -8.43964
3564 0.954575 -1.21392
3565 1.28731 -0.330013
3566 1.27509 -0.438503
3567 1.27142 -0.412477
3568 1.38412 -0.0604996
3569 1.29632 -0.11628
3570 1.4642 -0.166183
3571 1.88081 -0.375909
3572 1.90736 -0.391351
3573 0.78316 -3.38933
3574 0.945394 -3.82517
3575 2.09174 0.955289
3576 2.10641 0.933333
3577 1.56496 0.250008
3578 1.75314 0.714601
3579 1.06169 -4.06593
3580 1.00957 -4.15935
3581 0.961339 -4.24646
3582 -0.438739 -6.78375
3583 -0.36633 -6.6523
3584 -0.342519 -6.60908
3585 -0.318334 -6.56518
3586 -0.390584 -6.69633
3587 -0.270153 -6.47773
3588 -0.221988 -6.3903
3589 -0.29436 -6.52167
3590 -0.2462 -6.43425
3591 -0.0729492 -6.12146
3592 -0.171924 -6.29942
3593 -0.145533 -6.25148
3594 -0.121231 -6.20798
3595 -0.197649 -6.34612
3596 -0.00134415 -5.99012
3597 0.071673 -5.85846
3598 0.0473657 -5.90284
3599 -0.0492501 -6.07749
3600 -0.0250697 -6.0337
3601 0.144135 -5.72751
3602 0.095515 -5.81505
3603 0.167903 -5.68422
3604 0.119584 -5.77193
3605 0.0230901 -5.94645
3606 0.295104 -5.45635
3607 0.270622 -5.50076
3608 0.319395 -5.41259
3609 0.195415 -5.63719
3610 0.221537 -5.58981
3611 0.469735 -5.13957
3612 0.343232 -5.36904
3613 0.396273 -5.27282
3614 0.369792 -5.32087
3615 0.42067 -5.22857
3616 0.594889 -4.91255
3617 0.570962 -4.95596
3618 0.49418 -5.09522
3619 0.445258 -5.18398
3620 0.518508 -5.0511
3621 0.716034 -4.69283
3622 0.619297 -4.86829
3623 0.643408 -4.82455
3624 0.667509 -4.78083
3625 0.545031 -5.00256
3626 0.815358 -4.51035
3627 0.839776 -4.46685
3628 0.764236 -4.60537
3629 0.740061 -4.64924
3630 0.69151 -4.7373
3631 1.03677 -4.10982
3632 0.936551 -4.29137
3633 0.865131 -4.42114
3634 0.790352 -4.55803
3635 1.15913 -3.88923
3636 1.1344 -3.9341
3637 1.08653 -4.02086
3638 1.10973 -3.97863
3639 0.984938 -4.20402
3640 1.33198 -3.57578
3641 1.30776 -3.61971
3642 1.28148 -3.66736
3643 1.2548 -3.71574
3644 1.18401 -3.84411
3645 1.429 -3.39987
3646 1.38056 -3.48769
3647 1.40455 -3.44419
3648 1.35616 -3.53195
3649 1.5033 -3.26514
3650 1.47726 -3.31236
3651 1.45311 -3.35616
3652 0.245881 -5.54564
3653 0.857256 -5.94428
3654 1.66551 -4.22961
3655 0.175392 -3.11268
3656 -1.96544 -10.0171
3657 -0.537967 -8.2329
3658 -0.413802 -8.30097
3659 1.05416 -1.19295
3660 1.03906 -1.22033
3661 0.980961 -1.21846
3662 1.05047 -1.22639
3663 1.05499 -1.21801
3664 0.33597 -2.33054
3665 1.7004 -0.774018
3666 -1.10829 -9.00894
3667 -2.54319 -9.77685
3668 -0.760636 -5.79449
3669 -0.76346 -5.62289
3670 -0.7672 -5.16398
3671 -0.65019 -4.7525
3672 -0.75879 -5.14861
3673 -0.0262491 -3.64097
3674 -0.731357 -5.0014
3675 -0.190482 -3.95061
3676 -0.763111 -5.68108
3677 -0.623757 -4.70516
3678 -0.765745 -5.39293
3679 -0.549534 -4.57259
3680 -0.707166 -4.89889
3681 -0.0147777 -3.59048
3682 -0.240329 -4.04641
3683 -0.11746 -3.81935
3684 -0.761043 -5.22508
3685 -0.466658 -4.4404
3686 -0.76208 -5.27975
3687 -0.0934169 -3.7758
3688 -0.720045 -4.95063
3689 -0.437871 -4.39611
3690 -0.599053 -4.66127
3691 -0.00937784 -3.53153
3692 -0.364129 -4.26452
3693 -0.523904 -4.52928
3694 -0.764751 -5.5646
3695 -0.693817 -4.84865
3696 -0.767459 -5.4495
3697 -0.0043429 -3.47176
3698 -0.165831 -3.90719
3699 -0.141825 -3.86332
3700 -0.339859 -4.2204
3701 -0.31534 -4.17653
3702 -0.740983 -5.05352
3703 -0.388442 -4.30795
3704 -0.760816 -5.73979
3705 -0.764159 -5.3371
3706 -0.291673 -4.13223
3707 -0.0696755 -3.73209
3708 -0.67592 -4.80056
3709 -0.215287 -3.99891
3710 -0.412982 -4.35252
3711 -0.0450984 -3.68844
3712 -0.574645 -4.61771
3713 -0.496746 -4.48685
3714 -0.267212 -4.08913
3715 1.76478 0.51791
3716 1.77852 0.520534
3717 -0.834933 -5.6409
3718 -0.883601 -5.72819
3719 -1.03353 -5.64504
3720 -2.18251 -10.2647
3721 -2.03238 -9.77208
3722 -0.517119 -7.66248
3723 0.243041 -2.74134
3724 0.291169 -2.76731
3725 -2.34614 -9.76081
3726 -2.45249 -9.70231
3727 0.297991 -2.88929
3728 0.443983 -2.97079
3729 0.296352 -3.23687
3730 0.201513 -3.06506
3731 0.512013 -3.06092
3732 0.0567904 -3.04778
3733 0.0781412 -3.28842
3734 0.436352 -3.19595
3735 0.09286 -3.00526
3736 0.337589 -2.79303
3737 0.28716 -2.88371
3738 0.373796 -2.75603
3739 0.349473 -2.79961
3740 -2.35475 -9.97618
3741 -1.56234 -6.79088
3742 -2.03432 -9.91158
3743 -1.59827 -9.97713
3744 -2.10351 -9.86563
3745 2.89811 1.42876
3746 2.8293 1.34915
3747 2.79912 1.31782
3748 2.94595 1.46301
3749 -0.314626 -7.87868
3750 -0.451247 -7.79922
3751 -1.22469 -5.36686
3752 -1.19788 -5.43837
3753 -1.30469 -8.84035
3754 -1.3825 -8.81267
3755 -1.42015 -8.79927
3756 -1.42991 -8.79341
3757 -1.45226 -8.77883
3758 -1.49334 -8.75202
3759 -1.53646 -8.7238
3760 -1.61643 -8.67129
3761 -1.65766 -8.64436
3762 -1.69564 -8.61953
3763 -1.73575 -8.59332
3764 -1.77594 -8.56745
3765 -1.73928 -8.51051
3766 -1.71945 -8.47947
3767 -1.69202 -8.43675
3768 -1.6657 -8.39597
3769 -0.752798 -8.04877
3770 -0.446402 -7.29779
3771 -1.75841 -6.95703
3772 -0.143756 -7.24842
3773 0.789961 -3.42206
3774 0.293353 -2.49402
3775 -0.81701 -5.25228
3776 2.03267 0.255433
3777 1.58009 0.244437
3778 2.53163 0.809379
3779 1.98948 0.71858
3780 1.94089 1.04129
3781 1.90964 0.492386
3782 1.94087 0.523892
3783 1.94891 0.523837
3784 1.92532 0.540745
3785 1.92852 0.508925
3786 2.26608 0.680337
3787 2.29925 0.693434
3788 2.28243 0.688309
3789 2.22321 0.656817
3790 2.24789 0.66518
3791 2.27262 0.668029
3792 2.3021 0.687849
3793 2.38805 0.730539
3794 2.2849 0.68255
3795 2.48799 0.778752
3796 2.48317 0.788806
3797 2.38333 0.740327
3798 2.36332 0.494934
3799 2.53014 0.791961
3800 2.57787 0.87573
3801 2.51959 0.801944
3802 2.55296 0.829269
3803 1.99162 0.74756
3804 2.01901 0.728187
3805 1.39531 -0.0364071
3806 -2.58058 -10.2689
3807 -2.54069 -10.2663
3808 -1.75913 -9.69177
3809 -1.64124 -9.65987
3810 -1.58574 -9.62233
3811 -1.61112 -9.64188
3812 -1.56275 -9.58134
3813 -1.54695 -9.55221
3814 -1.57619 -9.62059
3815 -1.55956 -9.62155
3816 -1.38117 -9.14265
3817 -1.39483 -9.18679
3818 -1.40568 -9.21316
3819 -1.36726 -9.09525
3820 -1.35356 -9.04474
3821 -1.34471 -9.01231
3822 -1.31811 -8.91462
3823 -1.29762 -8.84221
3824 -1.26579 -8.71242
3825 -1.27554 -8.76351
3826 -1.28985 -8.81469
3827 -1.30465 -8.86684
3828 -1.24904 -8.66574
3829 0.186049 -6.3475
3830 0.249969 -6.3571
3831 -1.43817 -9.46281
3832 0.484617 -3.57145
3833 -1.05581 -6.04052
3834 -0.76958 -5.87472
3835 -0.748461 -5.82853
3836 -0.754771 -5.87904
3837 -0.772912 -5.83456
3838 1.37362 -0.0718442
3839 0.9684 -2.73415
3840 -1.32771 -8.92165
3841 -1.44539 -8.86647
3842 -1.15428 -8.99083
3843 -1.24046 -8.95621
3844 -1.49614 -8.847
3845 -1.20033 -8.97244
3846 -1.46791 -8.85612
3847 -1.36843 -8.90269
3848 -1.40659 -8.88474
3849 -1.32129 -8.92428
3850 -0.904111 -9.09079
3851 -1.0339 -9.03893
3852 -0.815264 -9.12629
3853 -1.07378 -9.02391
3854 -1.54444 -8.83181
3855 -1.62872 -8.7806
3856 -1.74866 -8.70242
3857 -0.859796 -9.1085
3858 -0.721071 -9.15368
3859 -0.770426 -9.14421
3860 -0.947495 -9.07346
3861 -1.58971 -8.80602
3862 -1.6689 -8.7544
3863 -1.78933 -8.67591
3864 -1.82882 -8.65018
3865 -0.990123 -9.05642
3866 -0.759483 -5.16802
3867 -0.432704 -3.93914
3868 -0.406509 -3.91077
3869 -1.18415 -5.56061
3870 1.60107 -0.879345
3871 1.48256 -1.1324
3872 2.26162 0.671254
3873 1.13603 -3.35205
3874 1.73173 -1.65771
3875 1.68636 -1.69302
3876 1.73442 -1.66492
3877 1.66367 -1.81995
3878 1.67946 -1.80315
3879 0.948831 -3.13317
3880 0.852829 -3.30875
3881 1.07372 -2.90701
3882 1.24231 -2.60276
3883 1.5627 -2.02362
3884 1.48712 -2.1611
3885 0.901296 -3.22121
3886 0.828797 -3.35292
3887 0.655816 -3.66426
3888 0.678262 -3.62346
3889 1.05003 -2.95192
3890 1.46306 -2.20464
3891 1.02375 -2.99838
3892 0.877337 -3.26544
3893 1.36693 -2.37844
3894 0.801543 -3.40019
3895 1.29394 -2.50913
3896 1.12175 -2.82125
3897 1.61184 -1.93647
3898 0.925042 -3.17714
3899 0.997806 -3.0458
3900 1.14495 -2.77845
3901 1.41592 -2.29213
3902 1.21834 -2.64612
3903 1.65905 -1.84919
3904 1.51243 -2.11406
3905 1.39078 -2.33528
3906 1.53872 -2.06711
3907 1.63543 -1.89242
3908 0.752781 -3.49123
3909 1.09774 -2.86526
3910 0.704023 -3.57959
3911 1.26752 -2.55651
3912 1.19398 -2.68971
3913 1.43895 -2.248
3914 0.973361 -3.0894
3915 1.31771 -2.46584
3916 1.3426 -2.42206
3917 0.72823 -3.53518
3918 0.776575 -3.44726
3919 1.58714 -1.97936
3920 1.16942 -2.73463
3921 -0.856945 -7.75653
3922 -0.695827 -8.81083
3923 0.528911 -2.10417
3924 1.66672 -2.77708
3925 1.67464 -2.77639
3926 1.49115 -0.709378
3927 1.49864 -0.68495
3928 1.46819 -0.921205
3929 1.24332 -0.779359
3930 1.17293 -1.17273
3931 1.16725 -1.18433
3932 1.34359 -1.61709
3933 1.16325 -1.16732
3934 0.567324 -2.39964
3935 0.247996 -6.53298
3936 1.52426 -3.04522
3937 -2.07012 -9.65326
3938 -2.09511 -9.69329
3939 -2.1181 -9.72846
3940 -2.08581 -9.78099
3941 -2.03493 -9.76436
3942 -2.01404 -9.75713
3943 -2.18001 -10.1837
3944 -0.896976 -4.60382
3945 0.820192 -3.70133
3946 0.868891 -3.6139
3947 1.13997 -3.12479
3948 1.11516 -3.16841
3949 1.16568 -3.07736
3950 0.893183 -3.57015
3951 1.58845 -2.33198
3952 1.33707 -2.7685
3953 1.63725 -2.24342
3954 1.26382 -2.89968
3955 1.01845 -3.34397
3956 1.51735 -2.45976
3957 1.36057 -2.72553
3958 1.5647 -2.37476
3959 0.916845 -3.52658
3960 1.38492 -2.6822
3961 1.31221 -2.81278
3962 1.28828 -2.85647
3963 1.54074 -2.41792
3964 0.969791 -3.43155
3965 1.46091 -2.54493
3966 0.944399 -3.47792
3967 1.41078 -2.6355
3968 1.06687 -3.25613
3969 1.43696 -2.5882
3970 1.04273 -3.29996
3971 0.797677 -3.74299
3972 1.61302 -2.28824
3973 0.993654 -3.38726
3974 1.09113 -3.21261
3975 1.24008 -2.9436
3976 1.1918 -3.03056
3977 0.844441 -3.65711
3978 1.21616 -2.987
3979 1.48491 -2.50157
3980 -1.30398 -9.73323
3981 -1.21335 -9.26453
3982 -1.29057 -9.47011
3983 -1.31954 -9.73349
3984 0.280311 -2.67635
3985 -1.71161 -6.70759
3986 -1.73734 -6.69326
3987 -1.68412 -6.66614
3988 -1.70783 -6.65276
3989 -1.83632 -10.1352
3990 -1.46357 -6.70669
3991 -1.21378 -5.48624
3992 -2.05953 -9.13117
3993 0.309632 -2.36793
3994 0.144341 -3.03355
3995 0.218659 -2.89849
3996 0.0525434 -3.33363
3997 0.48723 -3.10516
3998 0.52825 -3.01816
3999 0.469825 -2.92449
4000 0.493947 -2.88059
4001 -1.55304 -8.41085
4002 -0.953603 -9.35109
4003 -0.962779 -9.37328
4004 1.43429 -4.65293
4005 1.38777 -4.67734
4006 -0.583853 -7.05295
4007 -0.597154 -7.07075
4008 -0.542732 -6.89703
4009 -0.847082 -9.20895
4010 -0.739587 -5.46508
4011 -0.0933164 -7.36362
4012 -2.44749 -9.94038
4013 -0.811864 -9.11731
4014 -0.766877 -9.13533
4015 1.40513 -4.66467
4016 1.23899 -5.0106
4017 1.24326 -5.02183
4018 0.155865 -6.41986
4019 1.77348 -3.47636
4020 1.76843 -3.48575
4021 1.98383 -3.47623
4022 1.74015 -3.22107
4023 1.76048 -3.07956
4024 -0.749075 -7.36461
4025 -0.722017 -7.31921
4026 -1.99664 -9.07591
4027 -2.2841 -10.473
4028 -1.30199 -7.05864
4029 -0.153847 -7.25473
4030 0.0527497 -6.89144
4031 1.15691 -3.30491
4032 -1.777 -9.90192
4033 -1.7718 -9.89239
4034 -1.87252 -8.6493
4035 -1.05255 -8.50495
4036 -0.375522 -7.3674
4037 -2.50662 -10.2735
4038 1.80648 -3.71496
4039 1.69853 -3.63798
4040 1.77896 -3.49175
4041 1.68816 -3.65762
4042 1.7105 -3.61425
4043 1.7341 -3.571
4044 1.74247 -3.53292
4045 -1.22534 -8.62422
4046 -1.94185 -10.0569
4047 -0.119702 -4.3428
4048 0.515266 -3.58625
4049 -2.16478 -7.65098
4050 -2.07758 -9.17453
4051 -0.771663 -7.80377
4052 -2.15938 -8.92693
4053 -2.20574 -8.88123
4054 -2.0709 -9.00628
4055 -2.13328 -8.95261
4056 -2.00848 -9.35067
4057 -1.99165 -9.32948
4058 -1.99476 -9.08806
4059 -1.98083 -9.09046
4060 -2.12872 -9.78441
4061 -2.66786 -9.9932
4062 -2.23432 -10.4695
4063 -2.4273 -10.1178
4064 -2.45048 -10.1052
4065 -1.87781 -9.86101
4066 -1.52831 -9.89093
4067 -1.62144 -9.67612
4068 0.807578 -4.74405
4069 0.892648 -3.21665
4070 -1.83779 -8.63288
4071 1.23459 -1.89793
4072 1.32767 -1.66525
4073 -1.64712 -7.46773
4074 -2.34988 -9.18604
4075 -2.32096 -8.99989
4076 -2.29742 -8.84599
4077 1.64799 -2.81875
4078 -2.06516 -8.41663
4079 -2.05338 -8.31873
4080 -2.04129 -8.22093
4081 -2.0294 -8.12377
4082 1.63001 -2.23931
4083 1.55157 -3.8799
4084 -1.60345 -6.06518
4085 -1.11167 -8.52445
4086 -1.10907 -8.51379
4087 -0.290636 -7.79037
4088 0.0550609 -6.30612
4089 -0.797838 -9.41014
4090 -1.85792 -8.24894
4091 -1.86115 -8.61642
4092 -1.86364 -8.62309
4093 -0.318032 -6.09565
4094 -0.261352 -6.07324
4095 -0.73416 -5.83867
4096 -0.729607 -5.85454
4097 -0.708991 -5.87751
4098 -0.783516 -9.57827
4099 -1.46419 -7.13606
4100 -1.44034 -7.09282
4101 -1.24336 -7.09159
4102 -1.44163 -9.49986
4103 -1.45025 -9.49542
4104 -1.0305 -9.03094
4105 -1.16529 -9.8183
4106 -1.17698 -9.7197
4107 -1.17131 -9.76753
4108 -1.44501 -6.74389
4109 -1.91201 -7.91868
4110 1.75928 -3.52647
4111 -1.47208 -9.48669
4112 1.45198 -1.50167
4113 1.9301 1.17464
4114 -0.740819 -5.87458
4115 -0.716268 -5.42043
4116 -1.59217 -7.00859
4117 -1.97315 -7.6941
4118 -1.95383 -7.66308
4119 -2.00118 -7.74218
4120 -2.0231 -7.79323
4121 -1.1208 -9.00421
4122 -1.8682 -9.62416
4123 0.960424 -5.71125
4124 -0.777841 -7.40446
4125 -1.1572 -8.09065
4126 -1.11159 -8.00903
4127 -1.06656 -7.92746
4128 -0.968967 -7.75067
4129 -0.873616 -7.57794
4130 -0.897378 -7.62099
4131 -0.921231 -7.66419
4132 -0.826069 -7.49182
4133 -1.18302 -8.13436
4134 -1.13449 -8.05051
4135 -1.08913 -7.96834
4136 -1.04422 -7.887
4137 -1.02022 -7.84352
4138 -0.994375 -7.79669
4139 -0.945353 -7.70789
4140 -0.849715 -7.53466
4141 -0.802159 -7.44851
4142 -2.0365 -8.94516
4143 -2.03321 -8.89892
4144 -2.02258 -8.81043
4145 -2.02807 -8.85609
4146 -2.12139 -8.96368
4147 -1.85178 -8.25573
4148 -1.27755 -5.56523
4149 -1.23961 -5.52874
4150 -1.99941 -7.89777
4151 -2.00949 -7.98238
4152 -2.00219 -7.87802
4153 -2.01208 -7.96163
4154 0.697518 -3.22265
4155 -2.06135 -9.50253
4156 -2.05213 -9.08095
4157 1.24689 -4.8068
4158 1.21101 -4.79203
4159 1.24256 -4.81435
4160 -1.44865 -6.75034
4161 2.23982 0.661334
4162 -0.811023 -9.38852
4163 -1.94963 -8.24445
4164 -1.94423 -8.27368
4165 -0.130846 -6.44066
4166 -2.13698 -7.39333
4167 -1.92764 -9.68698
4168 0.546867 -6.35429
4169 0.895467 -2.86568
4170 -2.1369 -6.98904
4171 -2.09648 -6.84485
4172 -0.294233 -7.7883
4173 -0.289542 -7.78048
4174 -1.54288 -6.77689
4175 -1.54393 -6.80111
4176 -0.188123 -3.55047
4177 0.0340855 -3.09258
4178 0.0594295 -3.04924
4179 0.0955784 -3.00674
4180 0.0121952 -3.13782
4181 -0.0886041 -3.36929
4182 0.170484 -2.87227
4183 1.39046 -0.257429
4184 1.40435 -0.201034
4185 1.90406 1.18326
4186 1.76331 0.500519
4187 1.77334 0.514831
4188 1.7732 0.529017
4189 1.79585 0.534022
4190 2.54467 1.13749
4191 -0.766279 -5.51292
4192 -0.437268 -7.4779
4193 -0.378161 -8.21538
4194 -0.379171 -8.13472
4195 -0.355567 -8.34912
4196 -0.337109 -8.42359
4197 -1.87824 -8.66773
4198 -1.51546 -9.07141
4199 -1.49208 -9.442
4200 -1.50524 -9.47019
4201 -0.82535 -9.44194
4202 -0.836102 -9.45415
4203 -1.9807 -8.99811
4204 1.69816 -1.42353
4205 1.69123 -1.42018
4206 1.68787 -1.44362
4207 1.68133 -1.43967
4208 1.6798 -1.45939
4209 1.66987 -1.47694
4210 1.66334 -1.49006
4211 -0.660466 -9.62537
4212 -1.75846 -9.99004
4213 1.66142 -2.58968
4214 -1.19448 -9.62283
4215 0.661036 -2.78212
4216 1.86236 -3.31143
4217 0.220024 -6.00714
4218 0.243242 -6.01218
4219 0.239883 -6.01834
4220 0.338377 -6.07334
4221 0.317978 -6.06302
4222 0.32204 -6.05596
4223 -0.471825 -7.53942
4224 -0.685551 -5.72332
4225 -1.32504 -9.68461
4226 -0.28566 -6.11645
4227 -1.74125 -9.31743
4228 -1.9259 -9.42616
4229 1.4601 -4.61969
4230 0.476732 -2.57005
4231 -0.0394394 -7.26604
4232 -1.10745 -9.00061
4233 -1.71116 -8.72687
4234 -1.57101 -9.61089
4235 -0.697583 -9.61086
4236 -2.30035 -9.51472
4237 -2.26045 -9.29108
4238 -2.28236 -9.42366
4239 -2.5104 -9.92596
4240 -1.89484 -8.33459
4241 -1.90244 -8.35223
4242 0.421998 -3.54231
4243 -1.68257 -7.5315
4244 -1.14686 -6.56098
4245 0.0506236 -6.88423
4246 2.54012 0.817443
4247 1.68542 -1.80637
4248 1.75042 -3.22826
4249 1.74499 -3.22503
4250 1.82611 -3.1573
4251 0.059641 -6.88053
4252 -1.65352 -9.40015
4253 0.0174311 -6.95438
4254 -0.424432 -7.30959
4255 0.27232 -3.2813
4256 -0.763349 -5.50903
4257 0.196843 -6.32768
4258 -0.175917 -7.45043
4259 0.323145 -6.39762
4260 -0.0848755 -6.17171
4261 -0.0965637 -6.16524
4262 0.0791144 -6.26251
4263 1.04162 -4.52157
4264 0.544227 -2.44172
4265 -2.05608 -8.29737
4266 -2.07992 -8.49334
4267 -2.04451 -8.20076
4268 -2.03248 -8.10244
4269 -2.06759 -8.39235
4270 -2.07744 -8.51768
4271 -1.88028 -7.87339
4272 -2.0053 -8.02907
4273 -1.99402 -8.04805
4274 0.265508 -2.92314
4275 0.275858 -2.92929
4276 0.240745 -2.96847
4277 0.251297 -2.97418
4278 -1.08827 -7.23189
4279 -2.1177 -10.0205
4280 -2.10679 -10.0995
4281 -1.63668 -7.43967
4282 1.24067 -4.98421
4283 1.28346 -0.420931
4284 -1.89179 -6.84399
4285 -1.73814 -6.75362
4286 -2.48319 -9.87611
4287 0.777152 -3.07947
4288 1.77917 -3.10281
4289 1.72623 -2.97355
4290 -1.92802 -7.93741
4291 -2.40719 -9.88617
4292 -2.40599 -9.8842
4293 -2.4093 -9.8817
4294 -2.44774 -9.85358
4295 -2.46128 -9.8458
4296 -2.46343 -9.84958
4297 -0.771267 -5.17067
4298 -0.770971 -5.16175
4299 -1.76486 -6.80037
4300 -0.0180039 -6.44644
4301 0.00790596 -6.39937
4302 0.3194 -6.22511
4303 0.338371 -2.50274
4304 0.38046 -2.36961
4305 2.2556 0.63921
4306 0.734027 -1.85598
4307 0.651617 -1.97171
4308 -2.4207 -10.2025
4309 -1.54116 -6.34099
4310 -0.51961 -4.70521
4311 -0.47796 -4.63912
4312 -0.569795 -4.79718
4313 -0.526919 -4.72766
4314 -0.47044 -4.61665
4315 -0.582515 -4.82782
4316 1.9272 1.1794
4317 0.737269 -1.85381
4318 0.736782 -1.84756
4319 -0.985474 -5.55739
4320 1.0345 -4.11405
4321 1.04877 -4.12217
4322 -0.0646828 -4.60173
4323 -0.0912168 -4.64924
4324 -0.0411794 -4.55794
4325 -2.38691 -9.89198
4326 -1.67708 -9.49274
4327 -1.75442 -9.53605
4328 -1.72027 -9.473
4329 -1.68865 -9.63095
4330 -0.381826 -8.01666
4331 -0.390209 -8.01568
4332 -0.390314 -8.01563
